"Time (s)","Acceleration x (m/s^2)","Acceleration y (m/s^2)","Acceleration z (m/s^2)","Absolute acceleration (m/s^2)"
5.625416670E-4,1.222133560E1,1.150806885E1,2.536924438E0,1.697741671E1
1.057054167E-2,1.177960419E1,1.055649765E1,2.621348877E0,1.603340848E1
2.057854167E-2,1.119312378E1,9.325008545E0,2.592908020E0,1.479746520E1
3.058654167E-2,1.047087570E1,8.227341156E0,2.711910553E0,1.358980645E1
4.059454167E-2,9.656269684E0,7.060218201E0,2.880759430E0,1.230402374E1
5.060154167E-2,8.692723389E0,5.816753998E0,2.710114288E0,1.080475758E1
6.060954167E-2,7.773035889E0,4.837340698E0,2.560874634E0,9.506736078E0
7.061754167E-2,6.870263214E0,3.964206390E0,2.564167786E0,8.336090533E0
8.062554167E-2,6.024671631E0,3.073259125E0,2.414628754E0,7.181366299E0
9.063354167E-2,5.245392151E0,2.199226685E0,2.111658783E0,6.067111310E0
1.006415417E-1,4.428241425E0,1.493893433E0,1.869612122E0,5.033536449E0
1.106485417E-1,3.644920349E0,8.882528687E-1,1.706301727E0,4.121395770E0
1.206565417E-1,3.007695465E0,3.155438232E-1,1.502725067E0,3.376978315E0
1.306645417E-1,2.478396149E0,-1.877096558E-1,1.276395721E0,2.794077383E0
1.406725417E-1,1.963466949E0,-5.553451538E-1,1.103804626E0,2.319912790E0
1.506805417E-1,1.493144989E0,-8.725355530E-1,9.948312378E-1,1.995116398E0
1.606885417E-1,1.166374512E0,-1.300495605E0,8.631051636E-1,1.948504258E0
1.706955417E-1,8.508306885E-1,-1.694176941E0,8.443940735E-1,2.075367370E0
1.807035417E-1,4.204756165E-1,-1.664538574E0,9.313632202E-1,1.953183519E0
1.907115417E-1,-4.266128540E-2,-1.696122894E0,8.972341919E-1,1.919292071E0
2.007195417E-1,-3.817062378E-1,-1.916165314E0,9.026229858E-1,2.152235446E0
2.107275417E-1,-6.551875305E-1,-2.092947693E0,8.909472656E-1,2.367168726E0
2.207345417E-1,-8.623567200E-1,-2.118694153E0,8.982820129E-1,2.457526114E0
2.307425417E-1,-1.065634003E0,-2.143542480E0,8.312214661E-1,2.534024333E0
2.407505417E-1,-1.212628326E0,-2.166145477E0,8.406518555E-1,2.620944339E0
2.507585417E-1,-1.265767822E0,-2.201921082E0,7.708969116E-1,2.654224308E0
2.607665417E-1,-1.269360352E0,-2.274520111E0,6.917115784E-1,2.695029192E0
2.707745417E-1,-1.209933929E0,-2.191442871E0,7.533833313E-1,2.614182169E0
2.807815417E-1,-9.825567627E-1,-2.007475433E0,7.809260559E-1,2.367534775E0
2.907895417E-1,-6.069877625E-1,-1.912572784E0,7.167095947E-1,2.130737300E0
3.007975417E-1,-2.344125366E-1,-1.729204102E0,6.716532898E-1,1.869816623E0
3.108055417E-1,1.933978271E-1,-1.380279694E0,6.045927429E-1,1.519245582E0
3.208135417E-1,6.876699829E-1,-1.045725403E0,5.733078003E-1,1.376631199E0
3.308215417E-1,1.269210663E0,-6.120771790E-1,5.548960876E-1,1.514412047E0
3.408321667E-1,2.130669250E0,-7.783813477E-3,8.669970703E-1,2.300325186E0
3.508401667E-1,3.356919250E0,7.372169495E-1,1.395697632E0,3.709496942E0
3.608481667E-1,4.957989807E0,1.704355774E0,1.776954803E0,5.535707715E0
3.708561667E-1,6.891069946E0,2.606230316E0,2.120789795E0,7.666617952E0
3.808641667E-1,8.974138184E0,3.449726257E0,2.603386230E0,9.960591712E0
3.908721667E-1,1.119911133E1,4.711302795E0,2.941832428E0,1.250083384E1
4.008791667E-1,1.335193451E1,6.507268066E0,3.114722900E0,1.517630362E1
4.108871667E-1,1.539593399E1,8.351732483E0,3.303929443E0,1.782420177E1
4.208951667E-1,1.737167542E1,9.834399261E0,3.597019958E0,2.028371436E1
4.309031667E-1,1.855930573E1,1.108909012E1,3.757785645E0,2.194394453E1
4.409111667E-1,1.905612259E1,1.283236496E1,3.763473816E0,2.328023053E1
4.509181667E-1,1.982447479E1,1.508997025E1,3.981121216E0,2.523026613E1
4.609261667E-1,2.054357941E1,1.658042084E1,3.992198181E0,2.669993738E1
4.709341667E-1,2.099908218E1,1.775068726E1,3.824397125E0,2.776102239E1
4.809421667E-1,2.114622620E1,1.885449188E1,4.256997528E0,2.864920199E1
4.909501667E-1,2.067126389E1,1.940639420E1,4.692442017E0,2.873896829E1
5.009581667E-1,1.971565109E1,1.958676910E1,4.880151672E0,2.821638358E1
5.109651667E-1,1.857053238E1,1.922452240E1,5.128784637E0,2.721674790E1
5.209731667E-1,1.731614090E1,1.833686829E1,5.285658417E0,2.576873414E1
5.309811667E-1,1.580727859E1,1.745714767E1,5.142705688E0,2.410538287E1
5.409891667E-1,1.422821228E1,1.664733170E1,4.928950195E0,2.244705387E1
5.509971667E-1,1.318862411E1,1.576746140E1,4.800068207E0,2.110908098E1
5.610051667E-1,1.280197815E1,1.499416946E1,4.581073608E0,2.024109676E1
5.710121667E-1,1.274629395E1,1.424856995E1,4.262236633E0,1.958714926E1
5.810201667E-1,1.266007324E1,1.350656296E1,3.900139618E0,1.891866239E1
5.910281667E-1,1.254346573E1,1.289358765E1,3.581751709E0,1.834153974E1
6.010361667E-1,1.241937378E1,1.235740265E1,3.323388977E0,1.783230663E1
6.110441667E-1,1.231953140E1,1.165371597E1,3.057990875E0,1.723169342E1
6.210521667E-1,1.226130249E1,1.090317673E1,2.912643127E0,1.666440192E1
6.310591667E-1,1.218945190E1,1.026445496E1,2.959645386E0,1.620806201E1
6.410671667E-1,1.203766754E1,9.449250183E0,3.091670837E0,1.561256537E1
6.510751667E-1,1.166928360E1,8.397537231E0,3.136128387E0,1.471482628E1
6.610831667E-1,1.100810852E1,7.485483856E0,3.251688080E0,1.370344472E1
6.710911667E-1,1.023781036E1,6.584657135E0,3.400778046E0,1.263866140E1
6.810991667E-1,9.366622009E0,5.661826172E0,3.462000732E0,1.147934373E1
6.911061667E-1,8.339458008E0,4.774321747E0,3.398083649E0,1.019253062E1
7.011141667E-1,7.261848907E0,4.041595459E0,3.310665436E0,8.945918010E0
7.111221667E-1,6.277795258E0,3.408861237E0,3.126847687E0,7.797962855E0
7.211301667E-1,5.456153870E0,2.882705383E0,2.928061066E0,6.830310899E0
7.311381667E-1,4.636608124E0,2.379451904E0,2.673440552E0,5.857235751E0
7.411461667E-1,3.827690277E0,1.981429596E0,2.355501709E0,4.911788310E0
7.511531667E-1,3.082390137E0,1.595681763E0,2.016007690E0,4.013927783E0
7.611611667E-1,2.367476807E0,1.364712067E0,1.755249939E0,3.247812772E0
7.711691667E-1,1.794169006E0,1.203048248E0,1.595831451E0,2.685711364E0
7.811771667E-1,1.332379303E0,9.352551270E-1,1.470392303E0,2.193624919E0
7.911851667E-1,7.996371460E-1,6.959028625E-1,1.262624359E0,1.648611729E0
8.011931667E-1,1.312770081E-1,4.646337891E-1,1.056353302E0,1.161464812E0
8.112001667E-1,-4.501139832E-1,2.888992310E-1,9.683363342E-1,1.106228105E0
8.212081667E-1,-8.473878479E-1,1.805245972E-1,9.756710815E-1,1.304833075E0
8.312161667E-1,-1.078207855E0,4.056564331E-2,9.397457886E-1,1.430838879E0
8.412241667E-1,-1.167572021E0,-1.570234680E-1,8.806187439E-1,1.470839953E0
8.512321667E-1,-1.202449493E0,-3.821553040E-1,7.858657837E-1,1.486442899E0
8.612391667E-1,-1.186732178E0,-4.787045288E-1,8.147557068E-1,1.517009608E0
8.712471667E-1,-1.103654938E0,-3.719764709E-1,8.041278076E-1,1.415288751E0
8.812551667E-1,-1.059047699E0,-2.751278687E-1,7.391629028E-1,1.320469299E0
8.912631667E-1,-1.000669098E0,-2.375559998E-1,6.803352356E-1,1.233137271E0
9.012711667E-1,-9.270222473E-1,-1.953437805E-1,5.807922363E-1,1.111237626E0
9.112791667E-1,-7.625143433E-1,-1.044827271E-1,5.797444153E-1,9.635602477E-1
9.212861667E-1,-6.242019653E-1,1.062789917E-2,5.510041809E-1,8.326743980E-1
9.312941667E-1,-5.084925842E-1,2.439926147E-2,4.695735168E-1,6.925744147E-1
9.413021667E-1,-3.100053406E-1,-1.255888367E-1,4.555027771E-1,5.651182593E-1
9.513101667E-1,-5.313949585E-2,-2.098635864E-1,6.038442993E-1,6.414783463E-1
9.613181667E-1,2.600093079E-1,-1.493893433E-1,7.581733704E-1,8.153213327E-1
9.713261667E-1,7.214996338E-1,-2.034269714E-1,8.199948120E-1,1.111006636E0
9.813331667E-1,1.421893158E0,-2.348616028E-1,1.123563538E0,1.827384784E0
9.913411667E-1,2.381397858E0,2.484832764E-2,1.315015411E0,2.720466638E0
1.001349167E0,3.417094116E0,3.357518005E-1,1.266366577E0,3.659637383E0
1.011357167E0,4.416416016E0,4.266128540E-1,1.363065491E0,4.641624337E0
1.021365167E0,5.447771301E0,7.908055115E-1,1.513502655E0,5.709139672E0
1.031373167E0,6.630461884E0,1.566642151E0,1.745819550E0,7.033155644E0
1.041380167E0,8.139473877E0,2.050436096E0,2.004182281E0,8.629720146E0
1.051388167E0,9.843829651E0,2.387984161E0,2.124232635E0,1.034967704E1
1.061396167E0,1.128937363E1,3.053350525E0,2.096240845E0,1.188137753E1
1.071404167E0,1.226534409E1,4.020339661E0,2.254461823E0,1.310283918E1
1.081412167E0,1.332948120E1,4.983885956E0,2.598147125E0,1.446597929E1
1.091420167E0,1.464240097E1,5.933062134E0,2.861748962E0,1.605586309E1
1.101427167E0,1.616832779E1,7.347620544E0,2.941682739E0,1.800155128E1
1.111435167E0,1.782628006E1,9.257798309E0,3.008593597E0,2.031095088E1
1.121443167E0,1.934382431E1,1.127949417E1,3.084785156E0,2.260368172E1
1.131451167E0,2.082978424E1,1.331930237E1,3.107837219E0,2.491871544E1
1.141459167E0,2.219958572E1,1.556283691E1,3.038381653E0,2.728104218E1
1.151467167E0,2.328258362E1,1.766761002E1,2.968177643E0,2.937742708E1
1.161474167E0,2.360755783E1,1.896286652E1,2.707120514E0,3.040124331E1
1.171482167E0,2.294368835E1,1.969095245E1,2.493215332E0,3.033747792E1
1.181490167E0,2.178943863E1,2.002999741E1,2.309247894E0,2.968691728E1
1.191498167E0,2.020558228E1,1.973226654E1,2.057321777E0,2.831714094E1
1.201506167E0,1.840452759E1,1.893547348E1,1.845212860E0,2.647042882E1
1.211514167E0,1.656829605E1,1.799213516E1,1.679806824E0,2.451626221E1
1.221521167E0,1.510344223E1,1.705583221E1,1.597777405E0,2.283786926E1
1.231529167E0,1.414708099E1,1.607222763E1,1.441652069E0,2.146007368E1
1.241537167E0,1.360730347E1,1.521136780E1,1.265618134E0,2.044862360E1
1.251545167E0,1.332349365E1,1.449241287E1,1.071920929E0,1.971533739E1
1.261553167E0,1.330208817E1,1.384979919E1,8.672964478E-1,1.922276490E1
1.271561167E0,1.347737366E1,1.321811279E1,6.601272583E-1,1.888898818E1
1.281568167E0,1.354697891E1,1.238958572E1,3.589535522E-1,1.836168074E1
1.291576167E0,1.332394272E1,1.161584473E1,2.049238586E-1,1.767759294E1
1.301584167E0,1.300675232E1,1.081635727E1,3.589535522E-1,1.692034391E1
1.311592167E0,1.259136612E1,9.742640076E0,6.096821594E-1,1.593214514E1
1.321600167E0,1.200009567E1,8.670270081E0,9.196875000E-1,1.483312862E1
1.331608167E0,1.141166931E1,7.842790833E0,1.346300354E0,1.391215617E1
1.341615167E0,1.083431992E1,7.016509094E0,1.736987915E0,1.302424719E1
1.351622875E0,1.028421387E1,6.153703308E0,2.055076447E0,1.215962411E1
1.361630875E0,9.842332764E0,5.467081146E0,2.429897003E0,1.151802457E1
1.371638875E0,9.380093994E0,4.811743927E0,2.724634094E0,1.088864886E1
1.381646875E0,8.749455414E0,4.194577332E0,2.821482697E0,1.010486089E1
1.391654875E0,8.067623291E0,3.667074280E0,2.894381104E0,9.322629528E0
1.401661875E0,7.439529419E0,2.981200562E0,2.803070984E0,8.490663208E0
1.411669875E0,6.597680054E0,2.274071045E0,2.621947632E0,7.454890381E0
1.421677875E0,5.602250061E0,1.816772003E0,2.511926422E0,6.402783817E0
1.431685875E0,4.701423340E0,1.479074249E0,2.392923889E0,5.478788807E0
1.441693875E0,3.864813080E0,1.087488556E0,2.090103607E0,4.526361076E0
1.451701875E0,2.997366943E0,7.084767151E-1,1.678309937E0,3.507545024E0
1.461708875E0,2.100881195E0,4.507127380E-1,1.346450043E0,2.535699408E0
1.471716875E0,1.297801208E0,4.087998962E-1,1.084644470E0,1.740074412E0
1.481724875E0,7.080276489E-1,3.357518005E-1,8.222401428E-1,1.135830654E0
1.491732875E0,2.847079468E-1,1.728904724E-1,6.008505249E-1,6.870015165E-1
1.501740875E0,3.293151855E-3,1.261875916E-1,4.529580688E-1,4.702182102E-1
1.511748875E0,-2.776725769E-1,5.269042969E-2,1.615141296E-1,3.255228954E-1
1.521755875E0,-5.837860107E-2,-3.697311401E-2,3.359014893E-1,3.429356830E-1
1.531763875E0,1.734892273E-1,1.646575928E-2,2.613565063E-1,3.141287262E-1
1.541771875E0,-1.127156067E-1,1.275347900E-1,2.909948730E-1,3.371171114E-1
1.551779875E0,-5.445675659E-1,4.894821167E-2,2.740800476E-1,6.116123231E-1
1.561787875E0,-6.215075684E-1,-5.388793945E-3,2.954855347E-1,6.881950289E-1
1.571795875E0,-4.403842163E-1,6.047424316E-2,4.279600525E-1,6.170455401E-1
1.581802875E0,-3.462300110E-1,6.212081909E-2,5.063969421E-1,6.165809596E-1
1.591810875E0,-2.195933533E-1,1.571731567E-2,5.429209900E-1,5.858596045E-1
1.601818875E0,4.819976807E-2,-1.466949463E-2,5.792953491E-1,5.814821693E-1
1.611826875E0,2.787203979E-1,-9.175918579E-2,6.815327454E-1,7.420186597E-1
1.621834875E0,4.688250732E-1,-1.029858398E-1,7.144642639E-1,8.607335342E-1
1.631842875E0,7.210505676E-1,7.783813477E-3,5.492079163E-1,9.064236560E-1
1.641849875E0,9.948312378E-1,1.296304321E-1,3.700305176E-1,1.069306235E0
1.651857875E0,1.354832611E0,2.510279846E-1,3.074606323E-1,1.411778486E0
1.661865875E0,1.856738892E0,3.817062378E-1,2.508782959E-1,1.912098032E0
1.671873875E0,2.455493774E0,5.221142578E-1,2.531236267E-1,2.523118020E0
1.681881875E0,3.099454651E0,7.083270264E-1,3.764671326E-1,3.201573646E0
1.691889875E0,3.806733856E0,9.355545044E-1,6.331832886E-1,3.970819306E0
1.701897875E0,4.692442017E0,1.325343933E0,9.232800293E-1,4.962660036E0
1.711904875E0,5.840853882E0,1.904489594E0,1.196461945E0,6.258927693E0
1.721912875E0,7.221283264E0,2.564167786E0,1.397793274E0,7.789461756E0
1.731920875E0,8.702453156E0,3.326682129E0,1.542392578E0,9.443435804E0
1.741928875E0,1.041818527E1,4.311334534E0,1.945653992E0,1.144166768E1
1.751936875E0,1.217762650E1,5.464985504E0,2.553539886E0,1.358974685E1
1.761944875E0,1.379276779E1,6.609804840E0,3.197650452E0,1.562545781E1
1.771951875E0,1.513263153E1,7.882907410E0,3.510200500E0,1.742005378E1
1.781959875E0,1.615665207E1,9.289382629E0,3.524570618E0,1.896714617E1
1.791967875E0,1.680210983E1,1.095631622E1,3.653153229E0,2.038865588E1
1.801975875E0,1.734248611E1,1.300226166E1,3.936364288E0,2.202987963E1
1.811983875E0,1.799677551E1,1.486663467E1,3.940106506E0,2.367330130E1
1.821991875E0,1.833552109E1,1.620066055E1,3.804189148E0,2.476135277E1
1.831998875E0,1.840632385E1,1.733320541E1,3.674708405E0,2.554870348E1
1.842006875E0,1.830648148E1,1.843207031E1,3.199147339E0,2.617447275E1
1.852014875E0,1.801384003E1,1.945998276E1,2.612217865E0,2.664606995E1
1.862022875E0,1.738724304E1,1.999856277E1,2.212698669E0,2.659238179E1
1.872030875E0,1.636277344E1,2.008478348E1,1.648222504E0,2.595872723E1
1.882038875E0,1.528321838E1,2.015393967E1,1.325792999E0,2.532816170E1
1.892045875E0,1.454405548E1,1.986264542E1,1.101559296E0,2.464280150E1
1.902053875E0,1.421339310E1,1.916434753E1,8.485853577E-1,2.387494203E1
1.912061875E0,1.423030792E1,1.840632385E1,7.923023987E-1,2.327922173E1
1.922069875E0,1.445738571E1,1.757719803E1,8.970845032E-1,2.277671295E1
1.932077875E0,1.464255066E1,1.658521088E1,1.148711243E0,2.215384949E1
1.942085875E0,1.464255066E1,1.539877808E1,1.524579620E0,2.130377899E1
1.952092875E0,1.454525299E1,1.418405411E1,2.023641815E0,2.041682888E1
1.962100875E0,1.430739761E1,1.293160858E1,2.541115723E0,1.945213089E1
1.972108875E0,1.383228561E1,1.151046387E1,2.844684448E0,1.821853818E1
1.982116875E0,1.330463287E1,1.016116974E1,3.173251190E0,1.703913582E1
1.992124875E0,1.274853928E1,8.925189972E0,3.480262756E0,1.594667672E1
2.002132875E0,1.198243240E1,7.736362152E0,3.589685211E0,1.470767914E1
2.012140875E0,1.110570557E1,6.649172974E0,3.605851593E0,1.343690303E1
2.022147875E0,1.029873367E1,5.718408508E0,3.653153229E0,1.233327368E1
2.032155875E0,9.497749329E0,4.842879181E0,3.661685486E0,1.127247363E1
2.042163875E0,8.686137085E0,3.985462189E0,3.522325287E0,1.018526690E1
2.052171875E0,7.890092468E0,3.211721191E0,3.321592712E0,9.143395995E0
2.062179875E0,7.097640381E0,2.517913971E0,3.101699982E0,8.144748769E0
2.072187875E0,6.228847046E0,1.877096558E0,2.813549194E0,7.087883046E0
2.082194875E0,5.329367523E0,1.293759613E0,2.516417084E0,6.033931312E0
2.092202875E0,4.518653412E0,7.779322815E-1,2.196681976E0,5.084173384E0
2.102210875E0,3.756737823E0,4.123924255E-1,1.920356598E0,4.239211725E0
2.112218875E0,2.997816010E0,1.294807434E-1,1.679208069E0,3.438517970E0
2.122226875E0,2.330653381E0,-8.801696777E-2,1.469045105E0,2.756408114E0
2.132234875E0,1.870510254E0,-1.728904724E-1,1.376687164E0,2.328941235E0
2.142241875E0,1.620829468E0,-2.499801636E-1,1.289718018E0,2.086372644E0
2.152249875E0,1.441502380E0,-2.790197754E-1,1.142424316E0,1.860353318E0
2.162257875E0,1.332828369E0,-2.161505127E-1,1.074914703E0,1.725860401E0
2.172265875E0,1.256487122E0,-2.167492676E-1,1.069226532E0,1.664026895E0
2.182273875E0,1.127156067E0,-1.185534668E-1,8.861572266E-1,1.438683549E0
2.192281875E0,9.759704590E-1,1.008901978E-1,6.906637573E-1,1.199880658E0
2.202288875E0,8.187973022E-1,1.098715210E-1,5.553451538E-1,9.954441286E-1
2.212296875E0,6.544390869E-1,9.610015869E-2,4.031117249E-1,7.746126914E-1
2.222304875E0,3.601510620E-1,1.657054138E-1,2.799179077E-1,4.853051686E-1
2.232312875E0,1.047821045E-1,1.091230774E-1,2.603086853E-1,3.010776430E-1
2.242320875E0,-6.496490479E-2,3.353027344E-2,2.671943665E-1,2.770154284E-1
2.252328875E0,-2.071691895E-1,1.161584473E-1,3.068618774E-1,3.880413248E-1
2.262336875E0,-1.814227295E-1,2.158511353E-1,2.721340942E-1,3.918710051E-1
2.272343875E0,-2.634521484E-2,3.763174438E-1,1.330732727E-1,4.000217304E-1
2.282351875E0,1.788780212E-1,5.757028198E-1,2.404000854E-1,6.490171680E-1
2.292359875E0,5.119354248E-1,9.120533752E-1,3.017724609E-1,1.088570557E0
2.302367875E0,9.080117798E-1,1.303788757E0,2.276765442E-1,1.605050505E0
2.312375875E0,1.314716034E0,1.721420288E0,4.240681458E-1,2.207170100E0
2.322383875E0,1.819316711E0,2.289339294E0,7.664062500E-1,3.022973080E0
2.332390875E0,2.400857391E0,2.805765381E0,1.217867432E0,3.888397699E0
2.342398875E0,3.152893524E0,3.493435364E0,1.695673828E0,5.002013389E0
2.352403542E0,4.075275421E0,4.340523834E0,2.108814697E0,6.316258096E0
2.362411542E0,4.950954437E0,4.918921051E0,2.423161011E0,7.387790159E0
2.372419542E0,5.683081970E0,5.650898895E0,2.750829620E0,8.473319456E0
2.382427542E0,6.335724792E0,6.381978607E0,3.201242981E0,9.545628120E0
2.392434542E0,6.923402710E0,6.929539948E0,3.547622681E0,1.041814070E1
2.402442542E0,7.427554321E0,7.651338959E0,3.866160278E0,1.134278389E1
2.412450542E0,8.068820801E0,8.414152679E0,4.006867676E0,1.232715794E1
2.422458542E0,8.824150085E0,9.327253876E0,3.947740631E0,1.343309144E1
2.432466542E0,9.480385437E0,9.917326813E0,3.825444946E0,1.424307229E1
2.442474542E0,1.002106110E1,1.031684601E1,3.919000397E0,1.490696284E1
2.452482542E0,1.050799850E1,1.088955505E1,4.270768890E0,1.572386431E1
2.462489542E0,1.102277802E1,1.159907959E1,4.620890808E0,1.665511676E1
2.472497542E0,1.183723434E1,1.247356110E1,5.088668060E0,1.793333170E1
2.482505542E0,1.298145493E1,1.350701202E1,5.447621613E0,1.950984692E1
2.492513542E0,1.407837387E1,1.472637634E1,5.651647339E0,2.114256107E1
2.502521542E0,1.500000732E1,1.598660568E1,5.951623535E0,2.271549259E1
2.512529542E0,1.565205139E1,1.721584946E1,6.247109070E0,2.409146233E1
2.522536542E0,1.589784027E1,1.815439774E1,6.418502655E0,2.497039565E1
2.532544542E0,1.564307007E1,1.857038269E1,6.401288452E0,2.511058041E1
2.542552542E0,1.505554184E1,1.849598740E1,6.405479736E0,2.469415033E1
2.552560542E0,1.436862030E1,1.805665100E1,6.494544525E0,2.397246344E1
2.562568542E0,1.339579330E1,1.740924728E1,6.352639618E0,2.286668317E1
2.572576542E0,1.232237549E1,1.676319077E1,6.283633118E0,2.173314398E1
2.582583542E0,1.166524200E1,1.619602020E1,6.389463043E0,2.095743733E1
2.592591542E0,1.144475052E1,1.565758987E1,6.447841644E0,2.043812851E1
2.602599542E0,1.152782776E1,1.532782562E1,6.445596313E0,2.023311056E1
2.612607542E0,1.179801590E1,1.477517487E1,6.256539459E0,1.991590464E1
2.622615542E0,1.210068649E1,1.398436935E1,6.072721710E0,1.946450998E1
2.632623542E0,1.239437576E1,1.329505280E1,5.865103455E0,1.909917323E1
2.642631542E0,1.238060440E1,1.236189331E1,5.453309784E0,1.832578400E1
2.652638542E0,1.193408295E1,1.119342316E1,5.104834442E0,1.713984809E1
2.662646542E0,1.105645798E1,9.997260590E0,4.860392761E0,1.567845337E1
2.672654542E0,1.003034180E1,8.748706970E0,4.532424774E0,1.406024554E1
2.682662542E0,8.881929932E0,7.436535645E0,4.026476898E0,1.226390060E1
2.692670542E0,7.689659271E0,6.131399689E0,3.513493652E0,1.044363727E1
2.702678542E0,6.531966705E0,4.907844086E0,2.982547760E0,8.697649898E0
2.712685542E0,5.503305817E0,3.836072845E0,2.390977936E0,7.121699606E0
2.722693542E0,4.684957581E0,2.837798767E0,1.927841034E0,5.806763335E0
2.732701542E0,4.088897095E0,1.885179749E0,1.545236664E0,4.760329661E0
2.742709542E0,3.498075714E0,1.023272095E0,1.198258209E0,3.836592527E0
2.752717542E0,2.922672272E0,2.406994629E-1,9.424401855E-1,3.080282932E0
2.762725542E0,2.410287781E0,-5.384303284E-1,6.626719666E-1,2.557054661E0
