Time (s),Acceleration x (m/s^2),Acceleration y (m/s^2),Acceleration z (m/s^2),Absolute acceleration (m/s^2),Action,Placement
0.301,0.4315364516129032,-1.5876677419354839,-1.1589387096774195,2.456483870967742,1.0,0.0
0.311,0.5128912903225806,-1.6686774193548386,-1.0364548387096777,2.600838709677419,1.0,0.0
0.321,0.5727622580645161,-1.732,-0.9089387096774194,2.7312903225806453,1.0,0.0
0.331,0.6216332258064516,-1.7903870967741937,-0.7998741935483871,2.848677419354839,1.0,0.0
0.341,0.65903,-1.8346129032258065,-0.6828161290322581,2.970935483870968,1.0,0.0
0.351,0.6513225806451612,-1.8747096774193548,-0.5422161290322581,3.107677419354839,1.0,0.0
0.362,0.6133870967741936,-1.8846129032258065,-0.3753129032258065,3.2501290322580645,1.0,0.0
0.372,0.5396774193548387,-1.8838064516129032,-0.23666774193548396,3.3661290322580646,1.0,0.0
0.382,0.45522580645161287,-1.8773225806451614,-0.14121612903225808,3.4698064516129032,1.0,0.0
0.392,0.3902580645161291,-1.8579516129032259,-0.06572580645161295,3.550935483870968,1.0,0.0
0.402,0.3260322580645162,-1.8305967741935485,0.016483870967741895,3.6352258064516128,1.0,0.0
0.412,0.2589032258064516,-1.7948225806451612,0.12138709677419351,3.730645161290323,1.0,0.0
0.422,0.1836451612903226,-1.7457580645161292,0.2523225806451613,3.8329032258064517,1.0,0.0
0.432,0.10987096774193553,-1.6901129032258064,0.3781290322580645,3.9048387096774198,1.0,0.0
0.442,0.04235483870967747,-1.6389838709677418,0.47232258064516125,3.9406451612903224,1.0,0.0
0.452,-0.011967741935483828,-1.5723709677419353,0.5328064516129032,3.9567741935483873,1.0,0.0
0.462,-0.06758064516129028,-1.4746290322580646,0.5650000000000001,3.975806451612903,1.0,0.0
0.472,-0.16096774193548383,-1.3391451612903227,0.5711290322580644,4.041935483870968,1.0,0.0
0.482,-0.29590322580645156,-1.1688225806451615,0.5414516129032257,4.156451612903226,1.0,0.0
0.492,-0.43912903225806443,-0.9668870967741935,0.4746774193548387,4.285806451612903,1.0,0.0
0.502,-0.5958709677419354,-0.7414032258064516,0.3901612903225806,4.424516129032258,1.0,0.0
0.512,-0.7719999999999999,-0.49172580645161285,0.3098387096774194,4.561290322580645,1.0,0.0
0.522,-0.9407096774193549,-0.2246290322580645,0.25080645161290316,4.668709677419354,1.0,0.0
0.532,-1.0707096774193547,0.025048387096774222,0.22854838709677422,4.726451612903225,1.0,0.0
0.542,-1.1416774193548387,0.239241935483871,0.2630645161290323,4.736451612903226,1.0,0.0
0.552,-1.1698032258064517,0.4366612903225807,0.3520967741935484,4.7135483870967745,1.0,0.0
0.562,-1.1773193548387098,0.6134354838709678,0.4395483870967742,4.700322580645161,1.0,0.0
0.572,-1.2104806451612904,0.7973064516129034,0.48780645161290326,4.723548387096773,1.0,0.0
0.582,-1.2793193548387096,1.0056935483870968,0.4860322580645161,4.740967741935484,1.0,0.0
0.593,-1.3870612903225805,1.2121451612903227,0.43954838709677424,4.715806451612903,1.0,0.0
0.603,-1.4948677419354839,1.4140806451612904,0.3628709677419355,4.668064516129032,1.0,0.0
0.613,-1.5830935483870967,1.6056935483870967,0.2549677419354839,4.604516129032257,1.0,0.0
0.623,-1.6478032258064514,1.7656935483870968,0.08464516129032262,4.545483870967741,1.0,0.0
0.633,-1.667158064516129,1.5979516129032256,-0.6824516129032258,5.094516129032258,1.0,0.0
0.643,-1.4149,1.5340806451612903,-1.2598709677419353,5.546129032258064,1.0,0.0
0.653,-1.3374806451612904,1.7360161290322582,-1.284709677419355,5.626774193548386,1.0,0.0
0.663,-1.3537387096774194,1.7494677419354838,-1.604709677419355,5.668709677419354,1.0,0.0
0.673,-1.3425451612903225,1.8030161290322582,-1.826,5.594516129032258,1.0,0.0
0.683,-1.3189967741935484,1.8308870967741937,-1.992774193548387,5.52741935483871,1.0,0.0
0.693,-1.335125806451613,1.8312419354838712,-2.091548387096774,5.505806451612903,1.0,0.0
0.703,-1.4519,1.814967741935484,-2.178612903225807,5.590645161290323,1.0,0.0
0.713,-1.6764161290322581,1.8766129032258063,-2.247161290322581,5.785806451612903,1.0,0.0
0.723,-1.9748032258064518,2.008741935483871,-2.3234193548387094,6.065161290322581,1.0,0.0
0.733,-2.2786741935483867,2.1486451612903226,-2.386645161290322,6.351612903225806,1.0,0.0
0.743,-2.4667387096774194,2.200225806451613,-2.350516129032258,6.5364516129032255,1.0,0.0
0.753,-2.4596419354838712,2.213806451612903,-2.3485806451612903,6.534516129032258,1.0,0.0
0.763,-2.3458677419354834,2.238161290322581,-2.440032258064516,6.5445161290322575,1.0,0.0
0.773,-2.3390935483870967,2.349774193548387,-2.4822258064516127,6.628709677419355,1.0,0.0
0.783,-2.2974806451612904,2.3865483870967745,-2.310290322580645,6.67,1.0,0.0
0.793,-2.010383870967742,2.3193225806451614,-2.063838709677419,6.6729032258064525,1.0,0.0
0.803,-1.5855451612903224,2.2005580645161293,-1.809,6.72741935483871,1.0,0.0
0.813,-1.1852225806451613,2.0124935483870967,-1.5170645161290321,6.752258064516129,1.0,0.0
0.823,-0.8432870967741937,1.780235483870968,-1.192548387096774,6.7299999999999995,1.0,0.0
0.834,-0.4942548387096775,1.5308806451612904,-0.8741612903225806,6.740322580645162,1.0,0.0
0.844,-0.11554516129032268,1.231525806451613,-0.6093225806451612,6.86741935483871,1.0,0.0
0.854,0.22639032258064506,0.9089451612903225,-0.4306129032258065,7.067096774193549,1.0,0.0
0.864,0.4579677419354838,0.5995903225806453,-0.2980322580645161,7.241290322580645,1.0,0.0
0.874,0.6136451612903224,0.32636451612903233,-0.21354838709677415,7.380967741935484,1.0,0.0
0.884,0.7880967741935483,0.09926774193548395,-0.22377419354838704,7.4709677419354845,1.0,0.0
0.894,0.9543548387096773,-0.12911935483870962,-0.3023870967741935,7.555806451612903,1.0,0.0
0.904,1.1043548387096773,-0.37492580645161283,-0.413,7.679032258064517,1.0,0.0
0.914,1.225064516129032,-0.6233129032258063,-0.5172903225806451,7.79741935483871,1.0,0.0
0.924,1.290709677419355,-0.846216129032258,-0.5768064516129032,7.869677419354839,1.0,0.0
0.934,1.3083225806451613,-1.0175064516129033,-0.571,7.885483870967741,1.0,0.0
0.944,1.2369677419354839,-0.8865387096774193,0.03158064516129039,7.309032258064517,1.0,0.0
0.954,0.870516129032258,-0.9020225806451613,0.47729032258064524,6.882903225806451,1.0,0.0
0.964,0.6450322580645161,-1.2236354838709675,0.41177419354838724,6.878709677419355,1.0,0.0
0.974,0.5013548387096775,-1.3570870967741937,0.6514516129032258,6.929354838709678,1.0,0.0
0.984,0.3375806451612903,-1.530958064516129,0.7782258064516129,7.089354838709678,1.0,0.0
0.994,0.16112903225806446,-1.6706999999999999,0.8569032258064517,7.2780645161290325,1.0,0.0
1.0,0.010483870967741912,-1.7316354838709676,0.8150322580645162,7.44258064516129,1.0,0.0
1.01,-0.014354838709677457,-1.6922806451612902,0.7379032258064517,7.48483870967742,1.0,0.0
1.02,0.10564516129032253,-1.7045387096774194,0.6300000000000001,7.388387096774193,1.0,0.0
1.03,0.34661290322580646,-1.785183870967742,0.5265806451612904,7.156129032258065,1.0,0.0
1.04,0.6430645161290324,-1.8955064516129032,0.409483870967742,6.86,1.0,0.0
1.05,0.8617741935483871,-1.9397,0.21690322580645174,6.646774193548388,1.0,0.0
1.06,0.9219677419354838,-1.9517322580645162,0.10432258064516141,6.619677419354839,1.0,0.0
1.07,0.8905716129032258,-1.9821516129032257,0.11787096774193558,6.590322580645162,1.0,0.0
1.08,0.9925393548387097,-2.1061838709677416,0.11206451612903237,6.4793548387096775,1.0,0.0
1.09,1.1312490322580644,-2.1671516129032256,-0.05567741935483861,6.369354838709677,1.0,0.0
1.1,1.0880232258064517,-2.1373451612903227,-0.22128709677419348,6.260322580645161,1.0,0.0
1.11,0.8625393548387097,-2.098258064516129,-0.3148999999999999,6.03,1.0,0.0
1.12,0.6207651612903227,-2.039322580645161,-0.39393225806451604,5.788064516129032,1.0,0.0
1.13,0.449861935483871,-1.9789999999999999,-0.47651290322580636,5.598709677419355,1.0,0.0
1.14,0.2772812903225807,-1.9131935483870968,-0.5274806451612901,5.4238709677419354,1.0,0.0
1.15,0.050184516129032304,-1.7831935483870969,-0.5236096774193547,5.208709677419355,1.0,0.0
1.16,-0.18723483870967736,-1.6103225806451613,-0.479416129032258,4.980645161290322,1.0,0.0
1.17,-0.3794929032258064,-1.4013225806451612,-0.4652225806451612,4.782258064516129,1.0,0.0
1.19,-0.5392574193548387,-1.1480967741935484,-0.4619967741935483,4.654193548387097,1.0,0.0
1.2,-0.7199670967741936,-0.9064838709677419,-0.3877709677419354,4.596774193548387,1.0,0.0
1.21,-0.88158,-0.6535806451612902,-0.248416129032258,4.5441935483870965,1.0,0.0
1.22,-0.9928703225806452,-0.37358064516129025,-0.07519032258064506,4.457096774193548,1.0,0.0
1.23,-1.0496445161290324,-0.1093870967741935,0.0925516129032259,4.372580645161291,1.0,0.0
1.24,-1.0522251612903224,0.1306129032258065,0.2290032258064517,4.346774193548387,1.0,0.0
1.25,-1.0196445161290322,0.35738709677419356,0.3457774193548388,4.3906451612903235,1.0,0.0
1.26,-0.9444187096774193,0.6138387096774194,0.46319677419354843,4.436129032258064,1.0,0.0
1.27,-0.8651606451612903,0.9138387096774194,0.5652290322580645,4.444193548387097,1.0,0.0
1.28,-0.7644187096774193,1.2283548387096774,0.6152612903225808,4.402903225806452,1.0,0.0
1.29,-0.6369993548387096,1.5131935483870966,0.6213903225806452,4.3180645161290325,1.0,0.0
1.3,-0.48990258064516123,1.7796451612903226,0.6071967741935486,4.219354838709677,1.0,0.0
1.31,-0.3102251612903226,2.061903225806452,0.6009064516129033,4.124516129032258,1.0,0.0
1.32,-0.11183806451612904,2.3099677419354836,0.6530677419354839,4.050000000000001,1.0,0.0
1.33,0.04848451612903223,2.48,0.7043580645161291,4.0206451612903225,1.0,0.0
1.34,0.17525870967741933,2.6261290322580644,0.7601645161290322,4.024193548387097,1.0,0.0
1.35,0.26203290322580647,2.739032258064516,0.8040354838709678,4.043548387096774,1.0,0.0
1.36,0.28654903225806444,2.7816129032258066,0.8391967741935485,4.039032258064516,1.0,0.0
1.37,0.22429096774193544,2.733290322580645,0.8462935483870969,4.0764516129032256,1.0,0.0
1.38,0.11151677419354836,2.5619032258064514,0.8533903225806453,4.217741935483871,1.0,0.0
1.39,0.0020419354838709363,2.26458064516129,0.8961322580645162,4.45258064516129,1.0,0.0
1.4,-0.11444193548387101,1.8676451612903227,0.9706161290322581,4.7622580645161285,1.0,0.0
1.41,-0.2386354838709678,1.3644193548387098,1.0761,5.145483870967742,1.0,0.0
1.42,-0.3384741935483872,0.7905483870967743,1.223967741935484,5.580322580645162,1.0,0.0
1.43,-0.3387967741935484,0.22699999999999998,1.4185483870967743,6.089032258064516,1.0,0.0
1.44,-0.2634741935483871,-0.27129032258064517,1.623709677419355,6.598387096774194,1.0,0.0
1.45,-0.17386129032258069,-0.6274193548387097,1.7685483870967742,6.969354838709678,1.0,0.0
1.46,-0.10676451612903232,-0.8190322580645162,1.8066129032258065,7.136451612903226,1.0,0.0
1.47,-0.0661193548387097,-0.8693548387096776,1.7479032258064517,7.141935483870968,1.0,0.0
1.48,-0.029022580645161354,-0.8233225806451613,1.6430645161290323,7.113548387096774,1.0,0.0
1.49,0.036138709677419306,-0.7510322580645161,1.5267419354838712,7.148387096774194,1.0,0.0
1.5,0.1355806451612903,-0.6952258064516129,1.401258064516129,7.211290322580645,1.0,0.0
1.51,0.2533870967741935,-0.6590967741935485,1.2625483870967742,7.2706451612903225,1.0,0.0
1.52,0.36145161290322575,-0.6671612903225808,1.1260967741935484,7.305806451612903,1.0,0.0
1.53,0.42564516129032254,-0.748774193548387,0.9783548387096775,7.308064516129033,1.0,0.0
1.54,0.4140322580645161,-0.8740322580645161,0.8170645161290324,7.296774193548386,1.0,0.0
1.55,0.33935161290322574,-1.0317741935483873,0.6541612903225807,7.2700000000000005,1.0,0.0
1.56,0.22354516129032248,-1.2169354838709678,0.496741935483871,7.2296774193548385,1.0,0.0
1.57,0.09354516129032255,-1.4046774193548388,0.34770967741935493,7.1812903225806455,1.0,0.0
1.58,-0.009261290322580693,-1.5875483870967744,0.2096451612903227,7.12,1.0,0.0
1.59,-0.06290645161290327,-1.7589032258064514,0.08351612903225816,7.0448387096774185,1.0,0.0
1.6,-0.08387419354838714,-1.9048387096774195,-0.018741935483870865,6.968387096774193,1.0,0.0
1.61,-0.08355161290322585,-2.043516129032258,-0.09051612903225796,6.878387096774194,1.0,0.0
1.62,-0.059261290322580686,-2.204683870967742,-0.13574193548387087,6.744193548387097,1.0,0.0
1.63,-0.013003225806451656,-2.3848129032258063,-0.14838709677419346,6.570516129032258,1.0,0.0
1.64,0.05557741935483867,-2.583909677419355,-0.11443548387096765,6.38883870967742,1.0,0.0
1.65,0.134158064516129,-2.7997806451612903,-0.06469354838709668,6.214322580645161,1.0,0.0
1.66,0.21544838709677416,-2.9974903225806453,-0.002016129032257975,6.075612903225807,1.0,0.0
1.67,0.3206096774193548,-3.119716129032258,0.06450000000000009,6.010451612903227,1.0,0.0
1.68,0.476416129032258,-3.126651612903226,0.15930645161290333,5.936258064516129,1.0,0.0
1.69,0.6519,-2.9851354838709674,0.25446774193548394,5.784322580645162,1.0,0.0
1.7,0.8131903225806452,-2.7074935483870965,0.32624193548387104,5.553677419354839,1.0,0.0
1.71,0.9673838709677419,-2.3343645161290323,0.38304838709677425,5.264645161290322,1.0,0.0
1.72,1.096416129032258,-1.8651064516129032,0.4069193548387098,4.913032258064516,1.0,0.0
1.73,1.174964516129032,-1.326041935483871,0.370467741935484,4.507225806451612,1.0,0.0
1.74,1.1943193548387097,-0.7628161290322582,0.26498387096774195,4.072709677419355,1.0,0.0
1.75,1.164964516129032,-0.22120322580645163,0.12982258064516136,3.654967741935484,1.0,0.0
1.76,1.1007709677419355,0.21524838709677419,0.029822580645161367,3.3507741935483875,1.0,0.0
1.77,1.0188354838709677,0.5000870967741936,-0.005661290322580574,3.2033548387096773,1.0,0.0
1.78,0.9317709677419355,0.6523451612903226,0.011758064516129105,3.1749677419354843,1.0,0.0
1.79,0.8291258064516129,0.708925806451613,0.05208064516129039,3.1659354838709675,1.0,0.0
1.8,0.6817064516129033,0.6940870967741936,0.00453225806451621,3.1336774193548385,1.0,0.0
1.81,0.46235161290322574,0.6021516129032257,-0.3019193548387096,3.327225806451613,1.0,0.0
1.82,0.2829967741935484,0.4666354838709678,-0.4886935483870968,3.3943225806451616,1.0,0.0
1.83,0.17341612903225806,0.35260322580645165,-0.49901612903225806,3.305290322580645,1.0,0.0
1.84,0.1227709677419355,0.31870000000000004,-0.3734677419354838,3.2004516129032257,1.0,0.0
1.85,0.1259967741935484,0.3629903225806452,-0.1650806451612903,3.182387096774194,1.0,0.0
1.86,0.16648387096774195,0.4597645161290323,0.06524193548387099,3.201096774193548,1.0,0.0
1.87,0.20322580645161292,0.5697645161290323,0.2533064516129032,3.187225806451613,1.0,0.0
1.88,0.1964516129032258,0.6597645161290324,0.34282258064516136,3.1630322580645163,1.0,0.0
1.89,0.12322580645161291,0.7236032258064516,0.3250806451612903,3.23141935483871,1.0,0.0
1.9,0.03129032258064515,0.7593129032258065,0.29669354838709683,3.3210967741935487,1.0,0.0
1.91,-0.0077419354838709886,0.7703774193548388,0.370241935483871,3.3533548387096777,1.0,0.0
1.92,-0.0074193548387096915,0.7715709677419356,0.47943548387096774,3.3914193548387095,1.0,0.0
1.93,-0.007709677419354853,0.775925806451613,0.5131451612903226,3.3861935483870966,1.0,0.0
1.94,-0.008419354838709692,0.7863774193548387,0.49233870967741944,3.4089032258064518,1.0,0.0
1.95,-0.013419354838709693,0.8172806451612903,0.5178064516129032,3.424129032258065,1.0,0.0
1.96,-0.033516129032258084,0.8601516129032258,0.5448387096774193,3.4360645161290324,1.0,0.0
1.97,-0.07780645161290324,0.9004741935483871,0.5341935483870968,3.4117096774193545,1.0,0.0
1.98,-0.13490322580645162,0.9354096774193548,0.5043290322580645,3.3729354838709678,1.0,0.0
1.99,-0.16964516129032262,0.9615064516129032,0.4831354838709678,3.329645161290322,1.0,0.0
2.0,-0.1799677419354839,0.9743370967741936,0.46461935483870975,3.309322580645161,1.0,0.0
2.01,-0.17125806451612907,0.9704693548387097,0.3733290322580645,3.3115806451612904,1.0,0.0
2.02,-0.16480645161290325,0.9587274193548387,0.2794903225806452,3.289967741935484,1.0,0.0
2.03,-0.1638387096774194,0.9583725806451613,0.16294193548387098,3.243516129032258,1.0,0.0
2.04,-0.1493225806451613,0.9809209677419354,-0.027380645161290303,3.2315806451612903,1.0,0.0
2.05,-0.1364193548387097,1.0360822580645161,-0.20221935483870968,3.2260967741935485,1.0,0.0
2.06,-0.15125806451612905,1.1173725806451613,-0.3873806451612903,3.246741935483871,1.0,0.0
2.07,-0.21074193548387102,1.194791935483871,-0.5260903225806451,3.2593225806451613,1.0,0.0
2.08,-0.2838709677419355,1.2544693548387098,-0.5921548387096774,3.274161290322581,1.0,0.0
2.09,-0.34583870967741936,1.2938241935483872,-0.6378967741935485,3.289,1.0,0.0
2.1,-0.41061290322580646,1.311566129032258,-0.6469290322580645,3.313516129032258,1.0,0.0
2.11,-0.4509354838709678,1.3209209677419353,-0.5495096774193547,3.327709677419355,1.0,0.0
2.12,-0.43932258064516133,1.3547919354838711,-0.20415483870967743,3.088354838709677,1.0,0.0
2.13,-0.5025483870967742,1.4083725806451615,0.01165161290322582,2.9854516129032254,1.0,0.0
2.14,-0.6739354838709677,1.4333725806451614,0.044554838709677434,3.085451612903226,1.0,0.0
2.15,-0.892,1.4069951612903226,-0.0034129032258064375,3.230290322580645,1.0,0.0
2.16,-1.0755483870967741,1.3372532258064516,-0.11754193548387096,3.2609354838709677,1.0,0.0
2.17,-1.211677419354839,1.2330596774193547,-0.2736709677419355,3.237387096774194,1.0,0.0
2.18,-1.2671290322580644,1.1027370967741934,-0.40980000000000005,3.238677419354839,1.0,0.0
2.19,-1.2100322580645162,0.9585435483870969,-0.48157419354838704,3.2612580645161287,1.0,0.0
2.2,-1.0477096774193548,0.8072532258064516,-0.48899354838709674,3.2364193548387097,1.0,0.0
2.21,-0.8560967741935485,0.6548338709677419,-0.5154451612903226,3.239,1.0,0.0
2.22,-0.6993225806451613,0.5051887096774194,-0.6580258064516128,3.329322580645161,1.0,0.0
2.23,-0.5870645161290323,0.34815645161290326,-0.8548,3.446096774193548,1.0,0.0
2.24,-0.5104193548387097,0.16464677419354842,-0.9588967741935484,3.6284193548387096,1.0,0.0
2.25,-0.4762903225806452,-0.05986935483870968,-0.9869612903225806,3.8158387096774193,1.0,0.0
2.26,-0.48551935483870967,-0.3403854838709678,-1.079283870967742,4.0484193548387095,1.0,0.0
2.27,-0.5171,-0.6683532258064516,-1.165735483870968,4.3061612903225805,1.0,0.0
2.28,-0.5676483870967741,-1.0303209677419354,-1.239058064516129,4.6337419354838705,1.0,0.0
2.29,-0.6653903225806451,-1.4210951612903227,-1.3037741935483869,5.018967741935484,1.0,0.0
2.3,-0.850325806451613,-1.8580629032258067,-1.3738387096774194,5.476451612903225,1.0,0.0
2.31,-1.123551612903226,-2.3549903225806452,-1.4138709677419354,5.989354838709678,1.0,0.0
2.32,-1.4467774193548386,-2.9029580645161293,-1.3469354838709677,6.5283870967741935,1.0,0.0
2.33,-1.764841935483871,-3.4901516129032255,-1.2730967741935482,7.106774193548387,1.0,0.0
2.34,-2.0429064516129034,-4.100990322580645,-1.1659032258064514,7.679032258064516,1.0,0.0
2.35,-2.284841935483871,-4.7109903225806455,-0.9968709677419355,8.154838709677419,1.0,0.0
2.36,-2.4690354838709676,-5.335829032258064,-0.8284838709677419,8.578709677419354,1.0,0.0
2.37,-2.598712903225806,-6.00711935483871,-0.6194516129032257,8.982258064516131,1.0,0.0
2.38,-2.7214870967741933,-6.717764516129032,-0.37525806451612903,9.454516129032259,1.0,0.0
2.39,-2.8515838709677417,-7.41195806451613,-0.12629032258064507,9.954838709677418,1.0,0.0
2.4,-2.9967451612903226,-8.051312903225806,0.13106451612903233,10.439354838709678,1.0,0.0
2.41,-3.107067741935484,-8.540667741935483,0.32235483870967746,10.793225806451614,1.0,0.0
2.42,-3.164809677419355,-8.854538709677419,0.43009677419354847,10.963225806451613,1.0,0.0
2.43,-3.152229032258065,-8.953151612903227,0.4163870967741936,10.92451612903226,1.0,0.0
2.44,-3.0677129032258064,-8.88444193548387,0.20832258064516138,11.053225806451614,1.0,0.0
2.45,-3.2035193548387095,-8.716054838709677,-1.0507096774193547,12.230967741935485,1.0,0.0
2.46,-3.64351935483871,-8.640612903225808,-3.1579677419354835,14.271290322580644,1.0,0.0
2.47,-3.730616129032258,-8.550225806451614,-3.8209354838709673,14.85709677419355,1.0,0.0
2.48,-3.7422290322580647,-8.458935483870968,-4.1209354838709675,15.098064516129032,1.0,0.0
2.49,-3.785777419354839,-8.308612903225805,-3.929967741935484,15.186129032258064,1.0,0.0
2.5,-3.798358064516129,-8.012483870967742,-3.4251290322580643,15.550967741935484,1.0,0.0
2.51,-3.7697129032258068,-7.587322580645161,-2.899967741935484,15.931935483870967,1.0,0.0
2.52,-3.7801645161290325,-7.12958064516129,-2.5128709677419354,16.173548387096773,1.0,0.0
