Time (s),Acceleration x (m/s^2),Acceleration y (m/s^2),Acceleration z (m/s^2),Absolute acceleration (m/s^2),Action,Placement
0.304,-1.8538064516129034,-9.436451612903225,0.9621935483870968,10.301935483870968,1.0,0.0
0.314,-1.9486451612903226,-9.39806451612903,0.9920322580645162,10.266451612903227,1.0,0.0
0.324,-2.0947741935483872,-9.37516129032258,1.0020322580645162,10.234838709677419,1.0,0.0
0.334,-2.2809032258064517,-9.360645161290323,1.0286451612903227,10.208064516129033,1.0,0.0
0.344,-2.4918709677419355,-9.354193548387096,1.0839870967741936,10.189354838709678,1.0,0.0
0.354,-2.675741935483871,-9.35225806451613,1.1540838709677417,10.184516129032257,1.0,0.0
0.364,-2.8205806451612903,-9.353548387096774,1.2193741935483873,10.188387096774193,1.0,0.0
0.374,-2.9496129032258067,-9.36032258064516,1.2616967741935483,10.198709677419354,1.0,0.0
0.384,-3.0493225806451614,-9.371612903225806,1.281858064516129,10.219032258064514,1.0,0.0
0.394,-3.1180645161290323,-9.385806451612902,1.2847612903225807,10.243225806451612,1.0,0.0
0.404,-3.1561290322580646,-9.404193548387097,1.267341935483871,10.268709677419354,1.0,0.0
0.414,-3.160322580645161,-9.42225806451613,1.2402451612903227,10.282580645161291,1.0,0.0
0.425,-3.121935483870968,-9.429354838709678,1.2166967741935484,10.271290322580644,1.0,0.0
0.435,-3.034838709677419,-9.419677419354839,1.2028258064516129,10.223225806451614,1.0,0.0
0.445,-2.9093548387096773,-9.393225806451612,1.1863741935483871,10.14258064516129,1.0,0.0
0.455,-2.7638709677419353,-9.359354838709677,1.1502451612903226,10.040645161290323,1.0,0.0
0.465,-2.6164516129032256,-9.336774193548386,1.0899225806451613,9.940967741935482,1.0,0.0
0.475,-2.4938709677419353,-9.349354838709678,1.0155032258064516,9.880645161290323,1.0,0.0
0.485,-2.405806451612903,-9.39516129032258,0.9415032258064516,9.86774193548387,1.0,0.0
0.495,-2.343225806451613,-9.461612903225806,0.8799548387096775,9.889354838709679,1.0,0.0
0.505,-2.2977419354838706,-9.519032258064517,0.8369225806451612,9.91709677419355,1.0,0.0
0.515,-2.2703225806451615,-9.546774193548389,0.8229870967741937,9.932258064516128,1.0,0.0
0.525,-2.261290322580645,-9.545806451612902,0.8395677419354839,9.929032258064515,1.0,0.0
0.535,-2.2654838709677416,-9.528387096774193,0.8818580645161291,9.912903225806451,1.0,0.0
0.546,-2.2874193548387094,-9.511290322580644,0.9372129032258065,9.899354838709677,1.0,0.0
0.556,-2.335483870967742,-9.494193548387097,0.9959870967741935,9.890322580645162,1.0,0.0
0.566,-2.408580645161291,-9.476451612903226,1.0398258064516128,9.884516129032258,1.0,0.0
0.576,-2.488354838709678,-9.460322580645162,1.058516129032258,9.880645161290323,1.0,0.0
0.586,-2.5506451612903223,-9.446129032258064,1.0466129032258065,9.875483870967741,1.0,0.0
0.596,-2.587741935483871,-9.431935483870967,1.011516129032258,9.864516129032259,1.0,0.0
0.606,-2.6025806451612903,-9.420645161290324,0.9660645161290323,9.850322580645162,1.0,0.0
0.616,-2.6164516129032256,-9.41,0.9229354838709678,9.838387096774193,1.0,0.0
0.626,-2.64,-9.404516129032258,0.8801612903225806,9.83258064516129,1.0,0.0
0.636,-2.660645161290322,-9.406451612903224,0.8281645161290322,9.834193548387097,1.0,0.0
0.646,-2.6716129032258067,-9.415483870967742,0.7636161290322581,9.840967741935483,1.0,0.0
0.656,-2.6729032258064516,-9.427096774193549,0.6935516129032258,9.847419354838712,1.0,0.0
0.666,-2.674838709677419,-9.433548387096774,0.6289387096774194,9.850322580645162,1.0,0.0
0.677,-2.6848387096774196,-9.43032258064516,0.5774870967741935,9.846451612903227,1.0,0.0
0.687,-2.696451612903226,-9.41741935483871,0.5411696774193548,9.835483870967742,1.0,0.0
0.697,-2.705806451612903,-9.396129032258065,0.5121051612903226,9.815161290322582,1.0,0.0
0.707,-2.7074193548387093,-9.370645161290323,0.49204064516129037,9.790000000000001,1.0,0.0
0.717,-2.701290322580645,-9.348387096774193,0.48146000000000005,9.764838709677418,1.0,0.0
0.727,-2.693548387096774,-9.339677419354837,0.4731051612903226,9.753548387096775,1.0,0.0
0.737,-2.69258064516129,-9.346451612903227,0.46600838709677417,9.759032258064517,1.0,0.0
0.747,-2.702258064516129,-9.366129032258065,0.45729870967741937,9.778064516129032,1.0,0.0
0.757,-2.7216129032258065,-9.395483870967741,0.44729870967741936,9.810322580645161,1.0,0.0
0.767,-2.745483870967742,-9.431612903225806,0.4392341935483871,9.850967741935484,1.0,0.0
0.777,-2.767741935483871,-9.468387096774196,0.43600838709677414,9.89258064516129,1.0,0.0
0.787,-2.785806451612903,-9.497741935483871,0.4365245161290322,9.927096774193549,1.0,0.0
0.797,-2.799032258064516,-9.516129032258064,0.4361696774193548,9.949677419354838,1.0,0.0
0.808,-2.810967741935484,-9.519354838709678,0.4259070967741935,9.959354838709675,1.0,0.0
0.818,-2.8535483870967746,-9.443870967741935,0.3247458064516129,9.926129032258066,1.0,0.0
0.828,-3.0258064516129033,-9.193225806451611,0.16597161290322582,9.919677419354839,1.0,0.0
0.838,-3.2574193548387096,-9.026129032258064,0.09971354838709677,9.958387096774194,1.0,0.0
0.848,-3.4383870967741936,-9.07258064516129,0.1044232258064516,10.084193548387097,1.0,0.0
0.858,-3.5980645161290323,-9.196774193548388,0.10177806451612902,10.26225806451613,1.0,0.0
0.868,-3.736774193548387,-9.329354838709676,0.0842974193548387,10.439032258064515,1.0,0.0
0.878,-3.7993548387096774,-9.463225806451613,0.13268451612903226,10.591612903225805,1.0,0.0
0.888,-3.8116129032258064,-9.578387096774192,0.16574903225806453,10.70741935483871,1.0,0.0
0.898,-3.819032258064516,-9.689032258064517,0.14952,10.81709677419355,1.0,0.0
0.908,-3.794193548387097,-9.773225806451611,0.13922967741935482,10.895806451612902,1.0,0.0
0.918,-3.7539354838709675,-9.807419354838709,0.12822967741935484,10.92290322580645,1.0,0.0
0.929,-3.6902258064516125,-9.79516129032258,0.12026193548387096,10.904516129032256,1.0,0.0
0.939,-3.6008387096774195,-9.741935483870968,0.13932645161290322,10.848387096774193,1.0,0.0
0.949,-3.502451612903226,-9.656129032258063,0.20971032258064518,10.768387096774193,1.0,0.0
0.959,-3.348258064516129,-9.533548387096776,0.34296838709677424,10.688709677419354,1.0,0.0
0.969,-3.111806451612903,-9.400322580645161,0.5056135483870968,10.649032258064516,1.0,0.0
0.979,-2.822774193548387,-9.254193548387097,0.6773232258064515,10.637419354838709,1.0,0.0
0.989,-2.5434193548387096,-9.076129032258065,0.8403877419354838,10.602903225806452,1.0,0.0
0.999,-2.295354838709677,-8.948387096774194,0.9592858064516129,10.558387096774194,1.0,0.0
1.01,-2.0460000000000003,-8.897096774193548,1.0231890322580646,10.554516129032258,1.0,0.0
1.02,-1.798258064516129,-8.89258064516129,1.0168664516129031,10.579677419354839,1.0,0.0
1.03,-1.5711612903225807,-8.91193548387097,0.9664470967741935,10.617741935483872,1.0,0.0
1.04,-1.3701935483870968,-8.951290322580645,0.8964148387096774,10.661290322580646,1.0,0.0
1.05,-1.1863225806451614,-9.003225806451614,0.812866451612903,10.709032258064516,1.0,0.0
1.06,-1.0118064516129035,-9.043870967741936,0.7160922580645162,10.744516129032258,1.0,0.0
1.07,-0.8463225806451614,-9.053870967741936,0.6167374193548387,10.744516129032258,1.0,0.0
1.08,-0.6901935483870969,-9.044193548387097,0.533834193548387,10.718387096774196,1.0,0.0
1.09,-0.5389032258064517,-9.04741935483871,0.48199548387096774,10.699032258064516,1.0,0.0
1.1,-0.3847096774193549,-9.057096774193548,0.4665116129032258,10.689354838709678,1.0,0.0
1.11,-0.23880645161290326,-9.073225806451614,0.48506,10.686129032258066,1.0,0.0
1.12,-0.10345161290322588,-9.096451612903227,0.5249354838709678,10.689354838709678,1.0,0.0
1.13,0.046019354838709614,-9.189032258064515,0.6594516129032258,10.725806451612904,1.0,0.0
1.14,0.3034387096774193,-9.454193548387098,0.8500967741935483,10.732258064516131,1.0,0.0
1.15,0.595051612903226,-9.638387096774194,0.9446129032258064,10.696774193548386,1.0,0.0
1.16,0.8111806451612903,-9.612580645161291,0.9601612903225806,10.583870967741936,1.0,0.0
1.17,0.9879548387096774,-9.515806451612903,0.9786129032258064,10.429032258064515,1.0,0.0
1.18,1.136664516129032,-9.412580645161292,1.0131258064516129,10.27741935483871,1.0,0.0
1.19,1.2060193548387095,-9.302903225806451,0.9805451612903225,10.148387096774194,1.0,0.0
1.2,1.2198903225806452,-9.204516129032259,0.9629967741935485,10.048387096774194,1.0,0.0
1.21,1.2260193548387097,-9.098387096774195,0.9975483870967741,9.944838709677418,1.0,0.0
1.22,1.195051612903226,-9.00741935483871,1.0290645161290322,9.862903225806452,1.0,0.0
1.23,1.1405999999999998,-8.956451612903226,1.063258064516129,9.82483870967742,1.0,0.0
1.24,1.056890322580645,-8.946774193548388,1.096290322580645,9.828709677419354,1.0,0.0
1.25,0.9458903225806452,-8.974193548387097,1.1029032258064515,9.866774193548387,1.0,0.0
1.26,0.8262129032258064,-9.032903225806454,1.0551935483870967,9.926451612903227,1.0,0.0
1.27,0.6504064516129031,-9.131935483870967,0.9324354838709676,9.989032258064517,1.0,0.0
1.28,0.392341935483871,-9.25290322580645,0.7430806451612902,10.025806451612903,1.0,0.0
1.29,0.08169677419354836,-9.392258064516128,0.4885645161290321,10.052903225806451,1.0,0.0
1.3,-0.22120645161290323,-9.559032258064516,0.19727419354838707,10.111290322580645,1.0,0.0
1.31,-0.48862580645161297,-9.675806451612903,-0.08724193548387102,10.19258064516129,1.0,0.0
1.32,-0.7366903225806452,-9.705161290322579,-0.334983870967742,10.226451612903226,1.0,0.0
1.33,-0.9628193548387097,-9.670322580645161,-0.5231129032258066,10.211935483870967,1.0,0.0
1.34,-1.1689483870967743,-9.60483870967742,-0.6627580645161291,10.171612903225807,1.0,0.0
1.35,-1.3595935483870967,-9.51,-0.7508225806451613,10.101612903225806,1.0,0.0
1.36,-1.5370129032258064,-9.385806451612902,-0.7737258064516129,9.991935483870968,1.0,0.0
1.37,-1.7344322580645162,-9.254838709677419,-0.7414354838709678,9.883548387096775,1.0,0.0
1.38,-1.9566903225806453,-9.128064516129033,-0.7178870967741936,9.809354838709679,1.0,0.0
1.39,-2.1912064516129033,-8.999354838709676,-0.7698225806451613,9.774516129032257,1.0,0.0
1.4,-2.447012903225807,-8.845483870967742,-0.9128225806451614,9.768064516129032,1.0,0.0
1.41,-2.7228193548387094,-8.683548387096774,-1.1766612903225806,9.813225806451612,1.0,0.0
1.42,-2.9783999999999997,-8.529354838709676,-1.6547258064516128,9.997096774193547,1.0,0.0
1.43,-3.185690322580645,-8.383548387096774,-2.329887096774194,10.345483870967744,1.0,0.0
1.44,-3.3212903225806456,-8.236774193548387,-2.821177419354839,10.516451612903225,1.0,0.0
1.45,-3.3893548387096772,-8.064516129032258,-2.9466612903225804,10.38516129032258,1.0,0.0
1.46,-3.434516129032258,-7.849677419354839,-2.879241935483871,10.228709677419356,1.0,0.0
1.47,-3.4738709677419357,-7.575161290322581,-2.752951612903226,10.086129032258064,1.0,0.0
1.48,-3.4858064516129033,-7.2442935483870965,-2.6186290322580645,9.930000000000001,1.0,0.0
1.49,-3.467741935483871,-6.909774193548388,-2.573145161290323,9.689354838709678,1.0,0.0
1.5,-3.424516129032258,-6.687838709677419,-2.7218548387096773,9.511290322580646,1.0,0.0
1.51,-3.381612903225806,-6.649451612903225,-3.054951612903226,9.595161290322581,1.0,0.0
1.52,-3.374516129032258,-6.758806451612903,-3.4468870967741934,9.827741935483871,1.0,0.0
1.53,-3.4151612903225805,-6.9433225806451615,-3.6826935483870966,10.051612903225807,1.0,0.0
1.54,-3.491612903225806,-7.158806451612903,-3.7476290322580645,10.276774193548386,1.0,0.0
1.55,-3.5867741935483872,-7.414935483870968,-3.795241935483871,10.548387096774194,1.0,0.0
1.56,-3.720322580645161,-7.67816129032258,-3.9323387096774196,10.84967741935484,1.0,0.0
1.57,-3.8974193548387093,-7.897193548387097,-4.169790322580645,11.161290322580646,1.0,0.0
1.58,-4.089677419354839,-8.065903225806451,-4.502838709677419,11.491935483870968,1.0,0.0
1.59,-4.284838709677419,-8.223322580645162,-4.914129032258065,11.884516129032257,1.0,0.0
1.6,-4.466451612903225,-8.447193548387096,-5.356709677419355,12.355483870967744,1.0,0.0
1.61,-4.625806451612903,-8.799774193548387,-5.77541935483871,12.910322580645163,1.0,0.0
1.62,-4.799354838709678,-9.284290322580645,-6.18058064516129,13.565161290322582,1.0,0.0
1.63,-5.022903225806452,-9.87041935483871,-6.645741935483871,14.34258064516129,1.0,0.0
1.64,-5.307741935483871,-10.52493548387097,-7.170903225806452,15.224838709677421,1.0,0.0
1.65,-5.596774193548387,-11.213,-7.685741935483871,16.129677419354838,1.0,0.0
1.66,-5.785161290322581,-11.856225806451613,-8.188645161290323,16.964193548387097,1.0,0.0
1.67,-5.848064516129033,-12.406225806451612,-8.642516129032257,17.660967741935483,1.0,0.0
1.68,-5.773548387096774,-12.888806451612902,-8.961903225806452,18.19193548387097,1.0,0.0
1.69,-5.586064516129032,-13.349129032258064,-9.092225806451612,18.608064516129033,1.0,0.0
1.7,-5.340903225806452,-13.745258064516129,-9.030290322580646,18.90774193548387,1.0,0.0
1.71,-5.074129032258065,-14.044290322580647,-8.824483870967743,19.062580645161294,1.0,0.0
1.72,-4.771225806451613,-14.23525806451613,-8.506741935483872,19.05290322580645,1.0,0.0
1.73,-4.473483870967742,-14.323,-7.980935483870968,18.820322580645165,1.0,0.0
1.74,-4.248645161290322,-14.352354838709678,-7.221903225806452,18.386451612903226,1.0,0.0
1.75,-4.105516129032258,-14.367838709677418,-6.600935483870968,18.14290322580645,1.0,0.0
1.77,-4.027935483870968,-14.42074193548387,-6.308677419354839,18.23483870967742,1.0,0.0
1.78,-3.954741935483871,-14.530096774193549,-6.199000000000001,18.367419354838713,1.0,0.0
1.79,-3.870322580645161,-14.691709677419356,-6.144483870967742,18.47709677419355,1.0,0.0
1.8,-3.817096774193548,-14.886125806451613,-6.09158064516129,18.585806451612907,1.0,0.0
1.81,-3.7970967741935486,-15.059354838709677,-5.920935483870968,18.790322580645164,1.0,0.0
1.82,-3.7885483870967738,-15.095806451612903,-5.518677419354839,18.950645161290325,1.0,0.0
1.83,-3.7585483870967744,-14.925161290322581,-4.960612903225807,18.817096774193548,1.0,0.0
1.84,-3.6653225806451615,-14.593548387096773,-4.391580645161291,18.493548387096777,1.0,0.0
1.85,-3.521096774193549,-14.179032258064517,-3.9909354838709676,18.174193548387095,1.0,0.0
1.86,-3.357677419354839,-13.722903225806451,-3.760516129032258,17.85709677419355,1.0,0.0
1.87,-3.1875483870967742,-13.213451612903224,-3.566774193548387,17.475161290322582,1.0,0.0
1.88,-2.9908709677419356,-12.691967741935482,-3.294193548387097,17.051935483870967,1.0,0.0
1.89,-2.762483870967742,-12.204258064516129,-2.918709677419355,16.61225806451613,1.0,0.0
1.9,-2.517967741935484,-11.73674193548387,-2.446774193548387,16.130322580645164,1.0,0.0
1.91,-2.2483870967741937,-11.229967741935484,-1.8854838709677417,15.54967741935484,1.0,0.0
1.92,-1.9888387096774194,-10.630935483870969,-1.2512903225806453,14.871612903225806,1.0,0.0
1.93,-1.761741935483871,-9.904483870967741,-0.5987096774193549,14.110967741935484,1.0,0.0
1.94,-1.5116451612903228,-9.035774193548386,0.08258064516129017,13.25516129032258,1.0,0.0
1.95,-1.2044677419354837,-8.068354838709677,0.8506451612903224,12.303870967741936,1.0,0.0
1.96,-0.8256935483870967,-7.038354838709677,1.685806451612903,11.284838709677421,1.0,0.0
1.97,-0.4079516129032258,-5.969322580645161,2.4925806451612895,10.269354838709678,1.0,0.0
1.98,-0.0521451612903226,-4.933838709677419,3.2696774193548386,9.377096774193548,1.0,0.0
1.99,0.1849516129032258,-3.9770645161290323,3.9619354838709677,8.684193548387096,1.0,0.0
2.0,0.31398387096774194,-3.0983548387096773,4.46774193548387,8.158387096774193,1.0,0.0
2.01,0.39230645161290323,-2.2941612903225805,4.772903225806451,7.711290322580645,1.0,0.0
2.02,0.4500483870967742,-1.5983548387096775,4.836032258064516,7.2951612903225795,1.0,0.0
2.03,0.4871451612903226,-1.0519032258064516,4.611838709677419,7.024516129032259,1.0,0.0
2.04,0.4613387096774193,-1.0164193548387097,1.0918387096774191,10.098709677419356,1.0,0.0
2.05,0.511016129032258,-1.2344838709677421,-1.5081612903225807,12.37,1.0,0.0
2.06,0.42004838709677417,-1.383193548387097,-1.775258064516129,12.513548387096774,1.0,0.0
2.07,0.31595161290322576,-1.5370645161290324,-1.389774193548387,12.915161290322581,1.0,0.0
2.08,0.13933870967741935,-1.6919032258064515,-1.0968709677419355,13.264193548387096,1.0,0.0
2.09,-0.10417741935483871,-1.8135161290322581,-0.8510645161290321,13.584838709677419,1.0,0.0
2.1,-0.41924193548387095,-2.094161290322581,-0.5333225806451614,14.079032258064515,1.0,0.0
2.11,-0.7827903225806452,-2.6467419354838713,-0.24429032258064518,14.771612903225805,1.0,0.0
2.12,-1.1844032258064514,-3.5177096774193553,-0.010096774193548408,15.698064516129032,1.0,0.0
2.13,-1.6168225806451615,-4.622548387096774,0.1224838709677419,16.77064516129032,1.0,0.0
2.14,-2.0126290322580647,-5.817064516129032,0.10377419354838706,17.878387096774194,1.0,0.0
2.15,-2.138758064516129,-7.0164193548387095,-2.11041935483871,20.03096774193548,1.0,0.0
2.16,-2.1408225806451613,-7.969645161290322,-4.014612903225807,21.805161290322577,1.0,0.0
2.17,-2.301661290322581,-8.687064516129032,-3.5629999999999997,22.615806451612904,1.0,0.0
2.18,-2.4230806451612903,-9.18683870967742,-3.446870967741935,23.05258064516129,1.0,0.0
2.19,-2.5155645161290323,-9.488645161290323,-3.816225806451613,23.279032258064515,1.0,0.0
2.2,-2.618145161290323,-9.706354838709677,-4.704612903225806,23.88967741935484,1.0,0.0
2.21,-2.6965322580645164,-9.99,-5.228161290322581,24.226451612903226,1.0,0.0
2.22,-2.748048387096774,-10.390322580645162,-5.326451612903225,24.455483870967743,1.0,0.0
2.23,-2.801467741935484,-10.886129032258063,-5.45741935483871,24.759354838709676,1.0,0.0
2.24,-2.885338709677419,-11.451290322580645,-5.701935483870967,25.145806451612902,1.0,0.0
2.25,-3.029306451612903,-12.103870967741937,-6.036774193548387,25.624193548387098,1.0,0.0
2.26,-3.224870967741935,-12.819677419354838,-6.336129032258065,26.123870967741937,1.0,0.0
2.27,-3.466548387096774,-13.565806451612904,-6.571290322580644,26.613870967741935,1.0,0.0
2.28,-3.749451612903226,-14.309032258064516,-6.798709677419356,27.077741935483875,1.0,0.0
2.29,-4.043645161290323,-15.031612903225804,-7.064516129032258,27.47,1.0,0.0
2.3,-4.309451612903226,-15.746451612903225,-7.351935483870967,27.78870967741935,1.0,0.0
2.31,-4.534612903225805,-16.431612903225805,-7.609677419354839,28.066129032258065,1.0,0.0
2.32,-4.753645161290323,-17.04548387096774,-7.815161290322581,28.322903225806453,1.0,0.0
2.33,-4.9755806451612905,-17.580000000000002,-7.892806451612903,28.590645161290325,1.0,0.0
2.34,-5.176548387096775,-18.013548387096773,-7.750225806451613,28.76451612903226,1.0,0.0
2.35,-5.34074193548387,-17.984193548387097,-4.317870967741936,25.64193548387097,1.0,0.0
2.36,-5.591387096774193,-17.73483870967742,-1.8369032258064517,23.352903225806454,1.0,0.0
2.37,-5.655258064516128,-17.54806451612903,-1.774,23.188064516129035,1.0,0.0
2.38,-5.654612903225806,-17.31322580645161,-2.456580645161291,22.7241935483871,1.0,0.0
2.39,-5.531064516129032,-17.009354838709676,-3.096903225806452,22.251290322580648,1.0,0.0
2.4,-5.313322580645161,-16.677838709677417,-3.6846451612903226,21.758064516129032,1.0,0.0
2.41,-5.015064516129032,-16.152451612903224,-4.322064516129033,21.07741935483871,1.0,0.0
2.42,-4.648032258064516,-15.341483870967743,-4.908516129032258,20.19645161290323,1.0,0.0
2.43,-4.237709677419355,-14.221806451612903,-5.42883870967742,19.05709677419355,1.0,0.0
2.44,-3.819645161290323,-12.901161290322582,-5.839322580645161,17.75258064516129,1.0,0.0
2.45,-3.4744838709677417,-11.535677419354839,-6.042548387096774,16.45967741935484,1.0,0.0
2.46,-3.4493225806451613,-10.206967741935486,-3.9906129032258066,14.183870967741935,1.0,0.0
2.47,-3.5776129032258064,-9.160677419354839,-2.2328709677419356,12.318387096774194,1.0,0.0
2.48,-3.5498709677419353,-8.394916129032259,-2.834483870967742,11.43483870967742,1.0,0.0
2.49,-3.5589032258064512,-7.9071741935483875,-3.099967741935484,10.95774193548387,1.0,0.0
2.5,-3.584709677419355,-7.6736258064516125,-2.881806451612903,10.72483870967742,1.0,0.0
2.51,-3.576645161290322,-7.5704,-2.141064516129032,10.129677419354838,1.0,0.0
2.52,-3.575677419354838,-7.445238709677419,-1.7421935483870967,9.83290322580645,1.0,0.0
2.53,-3.613741935483871,-7.2539483870967745,-1.7491290322580644,9.670967741935483,1.0,0.0
2.54,-3.646,-6.989432258064516,-1.7604193548387097,9.439032258064517,1.0,0.0
