"Time (s)","Acceleration x (m/s^2)","Acceleration y (m/s^2)","Acceleration z (m/s^2)","Absolute acceleration (m/s^2)"
3.362499956E-5,4.075425110E0,8.272247772E0,4.357139282E0,1.019920760E1
1.004162500E-2,4.616998901E0,7.458988953E0,5.160069580E0,1.017740208E1
2.004962500E-2,5.226082306E0,6.850953369E0,5.793701935E0,1.038337520E1
3.005862500E-2,5.780080261E0,6.260581055E0,5.787864075E0,1.030065889E1
4.006662500E-2,6.121969299E0,5.711223450E0,5.048252106E0,9.776575613E0
5.007462500E-2,6.156547394E0,5.434299316E0,3.596121826E0,8.964751924E0
6.008362500E-2,5.456902313E0,5.956263885E0,1.931134186E0,8.305669243E0
7.009162500E-2,4.352199554E0,7.316335602E0,8.006849670E-1,8.550526534E0
8.009962500E-2,3.122357025E0,8.633296967E0,6.948550415E-1,9.206831889E0
9.010762500E-2,2.074835358E0,9.604776764E0,1.383722534E0,9.923273981E0
1.001166250E-1,1.349743195E0,1.004381378E1,2.345921631E0,1.040208394E1
1.101246250E-1,9.297166443E-1,9.891280975E0,3.054697723E0,1.039389198E1
1.201326250E-1,8.220904541E-1,9.256151733E0,3.613635406E0,9.970483362E0
1.301416250E-1,1.052910461E0,8.373137970E0,3.946543121E0,9.316290169E0
1.401496250E-1,1.521885223E0,7.631280670E0,3.858526154E0,8.685666548E0
1.501576250E-1,1.735940094E0,7.143594818E0,3.742218018E0,8.249159389E0
1.601656250E-1,1.883084106E0,6.645580444E0,3.817810822E0,7.892111547E0
1.701746250E-1,2.228565674E0,6.184090118E0,4.106859741E0,7.750856242E0
1.801826250E-1,2.760260010E0,5.904920654E0,4.558470612E0,7.954041587E0
1.901906250E-1,3.449277191E0,5.861510925E0,4.974305878E0,8.426063282E0
2.001996250E-1,4.222868500E0,6.220763855E0,5.336103516E0,9.219789696E0
2.102076250E-1,4.985981598E0,7.023394775E0,5.651647339E0,1.030190295E1
2.202156250E-1,5.672304382E0,8.274193726E0,5.768254852E0,1.157195242E1
2.302246250E-1,6.188730469E0,9.510023804E0,5.685327301E0,1.269109468E1
2.402326250E-1,6.529571686E0,1.056233551E1,5.637875977E0,1.363759082E1
2.502406250E-1,6.743177490E0,1.114731903E1,5.561834106E0,1.416570375E1
2.602496250E-1,6.844067688E0,1.121333176E1,5.288203125E0,1.416139696E1
2.702576250E-1,6.786886597E0,1.078941330E1,4.741090851E0,1.359967689E1
2.802656250E-1,6.577472076E0,1.013003448E1,3.882775726E0,1.268687057E1
2.902736250E-1,6.259682922E0,9.354646912E0,2.965782623E0,1.163997061E1
3.002826250E-1,5.933361511E0,8.471932526E0,2.149679718E0,1.056406846E1
3.102906250E-1,5.601351929E0,7.837102661E0,1.575473785E0,9.761016299E0
3.202986250E-1,5.344935150E0,7.865543518E0,1.326242065E0,9.601771952E0
3.303076250E-1,5.223687286E0,9.007818146E0,1.250649261E0,1.048769852E1
3.403156250E-1,5.346132660E0,1.087563400E1,1.266516266E0,1.218460557E1
3.503236250E-1,5.345084839E0,1.295076874E1,1.145268402E0,1.405716837E1
3.603316250E-1,5.000351715E0,1.458312424E1,1.073118439E0,1.545388666E1
3.703406250E-1,4.228556671E0,1.538500671E1,8.936416626E-1,1.598054187E1
3.803486250E-1,3.168610840E0,1.502590347E1,6.909631348E-1,1.537189968E1
3.903566250E-1,2.193688202E0,1.349608475E1,6.801855469E-1,1.369011409E1
4.003656250E-1,1.481169891E0,1.141810593E1,8.211923218E-1,1.154302231E1
4.103736250E-1,1.016087036E0,9.780661011E0,1.014739838E0,9.885517670E0
4.203816250E-1,6.221063232E-1,8.501870270E0,1.200204163E0,8.608676112E0
4.303906250E-1,-3.936813354E-2,7.577542419E0,9.255253601E-1,7.633956783E0
4.403986250E-1,-8.068222046E-1,7.115603027E0,6.755451965E-1,7.192991716E0
4.504066250E-1,-7.620652771E-1,7.203470306E0,4.480183411E-1,7.257509792E0
4.604146250E-1,-3.068618774E-1,7.728129272E0,2.698887634E-1,7.738926683E0
4.704236250E-1,2.992277527E-1,8.600814514E0,3.210823059E-1,8.612005655E0
4.804316250E-1,7.583230591E-1,9.527986450E0,6.598278809E-1,9.580863870E0
4.904396250E-1,9.900411987E-1,1.029723679E1,9.846524048E-1,1.039147763E1
5.004486250E-1,1.037642212E0,1.083342178E1,1.318009186E0,1.096252148E1
5.104572500E-1,9.595046997E-1,1.096784225E1,1.559756470E0,1.111966965E1
5.204652500E-1,8.735833740E-1,1.063658112E1,1.603315887E0,1.079215584E1
5.304742500E-1,8.690927124E-1,9.725725250E0,1.354233856E0,9.857941120E0
5.404822500E-1,8.337661743E-1,8.559051361E0,9.924362183E-1,8.656642298E0
5.504902500E-1,8.946894836E-1,7.511230316E0,7.726931763E-1,7.603690215E0
5.604982500E-1,9.669891357E-1,6.885531464E0,5.014572144E-1,6.971159937E0
5.705072500E-1,9.870474243E-1,6.778504028E0,2.242337036E-1,6.853660353E0
5.805152500E-1,9.681866455E-1,7.161407776E0,4.131408691E-2,7.226676523E0
5.905232500E-1,1.004710693E0,7.884553986E0,-9.145980835E-2,7.948836394E0
6.005322500E-1,1.070723419E0,8.709787903E0,-1.477427673E-1,8.776598537E0
6.105402500E-1,1.113085327E0,9.402098236E0,-1.255888367E-1,9.468589269E0
6.205482500E-1,1.166673889E0,9.788594513E0,-1.871109009E-2,9.857893315E0
6.305572500E-1,1.238973541E0,9.742191010E0,1.362167358E-1,9.821603540E0
6.405652500E-1,1.353186035E0,9.367220764E0,4.320016479E-1,9.474310672E0
6.505732500E-1,1.483265533E0,8.955277405E0,8.583151245E-1,9.117772474E0
6.605822500E-1,1.564546509E0,8.640931091E0,1.263522491E0,8.871864798E0
6.705902500E-1,1.709145813E0,8.397986298E0,1.618434448E0,8.721621600E0
6.805982500E-1,1.910626831E0,8.207881622E0,1.944755859E0,8.648808644E0
6.906062500E-1,2.181264038E0,8.128247223E0,2.182162170E0,8.694144435E0
7.006152500E-1,2.543361053E0,8.281528473E0,2.317929840E0,8.968009703E0
7.106232500E-1,2.987786865E0,8.456215210E0,2.428998871E0,9.291635031E0
7.206312500E-1,3.374283142E0,8.510552216E0,2.448009338E0,9.476710160E0
7.306402500E-1,3.762276306E0,8.582552490E0,2.247127075E0,9.636623389E0
7.406482500E-1,4.147874451E0,8.696016541E0,1.994602203E0,9.838902585E0
7.506562500E-1,4.543651428E0,8.737779694E0,1.805994415E0,1.001275078E1
7.606652500E-1,4.884642334E0,8.774603119E0,1.439406738E0,1.014520982E1
7.706732500E-1,5.163213043E0,8.722062378E0,9.816586304E-1,1.018316231E1
7.806812500E-1,5.347779236E0,8.666827240E0,4.748126221E-1,1.019500290E1
7.906892500E-1,5.373825073E0,8.632398834E0,7.499404907E-2,1.016867394E1
8.006982500E-1,5.442382507E0,8.583600311E0,-5.703140259E-2,1.016370869E1
8.107062500E-1,5.466033325E0,8.581205292E0,3.607498169E-2,1.017427668E1
8.207142500E-1,5.408702545E0,8.629854126E0,3.707789612E-1,1.019146322E1
8.307232500E-1,5.397775269E0,8.652457123E0,8.901988220E-1,1.023686700E1
8.407312500E-1,5.420827332E0,8.684191132E0,1.366358643E0,1.032799499E1
8.507392500E-1,5.245242462E0,8.780440979E0,1.507215729E0,1.033829829E1
8.607482500E-1,5.203329620E0,8.893306274E0,1.562001801E0,1.042139075E1
8.707562500E-1,5.060376892E0,9.030271454E0,1.576820984E0,1.047089209E1
8.807642500E-1,4.835245056E0,9.139843597E0,1.631008301E0,1.046788058E1
8.907722500E-1,4.714296570E0,9.352401581E0,1.834734650E0,1.063288572E1
9.007812500E-1,4.616100769E0,9.740544434E0,2.098037109E0,1.098127278E1
9.107892500E-1,4.464316406E0,1.015518219E1,2.321522369E0,1.133345986E1
9.207972500E-1,4.307592316E0,1.057640625E1,2.529290314E0,1.169671023E1
9.308062500E-1,4.081113281E0,1.095242432E1,2.469564514E0,1.194612209E1
9.408142500E-1,3.816164246E0,1.109941864E1,2.199825439E0,1.194150056E1
9.508222500E-1,3.538791046E0,1.104642883E1,1.782493286E0,1.173558326E1
9.608312500E-1,3.275039520E0,1.080722626E1,1.360670471E0,1.137424491E1
9.708392500E-1,3.039279785E0,1.040127045E1,1.030157776E0,1.088507573E1
9.808472500E-1,2.845283203E0,9.992021484E0,7.921527100E-1,1.041938749E1
9.908562500E-1,2.950065308E0,9.625284119E0,6.038442993E-1,1.008531644E1
1.000864250E0,3.330723724E0,9.662257233E0,5.566923523E-1,1.023537209E1
1.010872250E0,3.847299500E0,1.001881577E1,-5.254074097E-2,1.073224782E1
1.020880250E0,4.331243134E0,1.026759842E1,-1.252295837E0,1.121389715E1
1.030889250E0,4.393813019E0,1.056098831E1,-1.948797455E0,1.160335635E1
1.040897250E0,3.785627747E0,1.084569626E1,-1.170865173E0,1.154690565E1
1.050905250E0,3.076252899E0,1.104059097E1,4.155358887E-1,1.146868131E1
1.060914250E0,2.556084595E0,1.064211960E1,1.008752289E0,1.099117187E1
1.070922250E0,2.088606720E0,9.875264282E0,6.773414612E-1,1.011641805E1
1.080930250E0,1.673968964E0,9.027127991E0,-8.761280823E-1,9.222733449E0
1.090939250E0,1.262025604E0,7.380701752E0,-6.842570801E0,1.014338416E1
1.100947250E0,5.281018066E-1,6.998097382E0,-8.894803162E0,1.133003891E1
1.110955250E0,-3.659889221E-1,8.331973572E0,-5.157225494E0,9.805748635E0
1.120964250E0,-5.769003296E-1,9.213340759E0,-1.892364807E0,9.423349007E0
1.130972250E0,-6.424639893E-1,9.902357941E0,8.153544617E-1,9.956618686E0
1.140980250E0,-2.694396973E-1,1.064810715E1,2.561772766E0,1.095524821E1
1.150988250E0,5.210664368E-1,1.092383377E1,2.904559937E0,1.131539318E1
1.160997250E0,1.006656647E0,1.179831528E1,3.249742126E0,1.227902378E1
1.171005250E0,1.547931061E0,1.261516663E1,3.273093567E0,1.312446803E1
1.181013250E0,2.162103882E0,1.305061111E1,2.910846863E0,1.354496855E1
1.191022250E0,3.224594421E0,1.305480240E1,1.179547119E0,1.349878536E1
1.201030250E0,5.129383392E0,1.302561310E1,-3.636388092E0,1.446376469E1
1.211038250E0,6.735094299E0,1.317455338E1,-7.737859039E0,1.669744934E1
1.221047250E0,7.383396149E0,1.223286163E1,-7.051386566E0,1.593359642E1
1.231055250E0,7.073989563E0,9.956096191E0,-2.744692383E0,1.251792778E1
1.241063250E0,6.710545349E0,7.708819427E0,3.628454590E-1,1.022687502E1
1.251072250E0,6.483766937E0,5.987848206E0,3.224444733E0,9.396307980E0
1.261080250E0,6.214177551E0,4.640649719E0,5.842201080E0,9.709940572E0
1.271088250E0,5.839356995E0,3.822151794E0,7.862250366E0,1.051294037E1
1.281096250E0,5.498515778E0,3.165617065E0,8.871601410E0,1.090688401E1
1.291105250E0,4.882247314E0,3.104843445E0,8.951984253E0,1.065900623E1
1.301113250E0,3.642675018E0,4.160897369E0,7.264992371E0,9.130293662E0
1.311121250E0,2.161355438E0,5.665867767E0,4.525688782E0,7.566728080E0
1.321130250E0,1.080004120E0,7.073989563E0,2.700085144E0,7.648411405E0
1.331138250E0,1.794767761E-1,8.333320770E0,1.616189117E0,8.490495524E0
1.341146250E0,-6.346801758E-1,9.295370178E0,1.163680115E0,9.389402382E0
1.351155250E0,-1.176253967E0,1.005384293E1,1.436562653E0,1.022384679E1
1.361163250E0,-1.444945221E0,1.055036041E1,2.018851776E0,1.083853007E1
1.371171250E0,-1.456920319E0,1.050680099E1,2.636617126E0,1.093010676E1
1.381180250E0,-7.455995178E-1,9.703122253E0,3.253035278E0,1.026103010E1
1.391188250E0,3.969744873E-1,8.798403625E0,3.726650391E0,9.563337191E0
1.401196250E0,1.135239258E0,8.094417572E0,4.207300873E0,9.192918179E0
1.411204250E0,1.772164764E0,7.700287170E0,4.681664429E0,9.184387420E0
1.421213250E0,2.341430969E0,7.354057159E0,5.088368683E0,9.244238830E0
1.431221250E0,3.022963715E0,6.904242554E0,5.507646790E0,9.334936958E0
1.441229250E0,3.756887512E0,6.508465576E0,5.888155518E0,9.546973517E0
1.451238250E0,4.616849213E0,6.414461060E0,5.923631744E0,9.876741385E0
1.461246250E0,5.511538696E0,6.655310211E0,5.638774109E0,1.031823562E1
1.471254250E0,6.325845337E0,7.107968903E0,5.152734833E0,1.082082332E1
1.481263250E0,6.892417145E0,7.744295654E0,4.422702942E0,1.127119473E1
1.491271250E0,7.314090271E0,8.287965088E0,3.632496185E0,1.163534745E1
1.501279250E0,7.652087402E0,8.647068329E0,3.098706207E0,1.195525878E1
1.511288000E0,7.827073517E0,9.053323517E0,2.886297913E0,1.231082703E1
1.521296000E0,7.784861298E0,9.567803650E0,2.838996277E0,1.265728375E1
1.531304000E0,7.490573273E0,1.005204666E1,2.818937988E0,1.284907551E1
1.541313000E0,7.106771393E0,1.021386017E1,2.855012970E0,1.276637138E1
1.551321000E0,6.723418579E0,1.030023056E1,2.958896942E0,1.265125204E1
1.561329000E0,6.392456818E0,1.083521805E1,2.955603790E0,1.292288853E1
1.571337000E0,6.180946655E0,1.196521820E1,2.809357910E0,1.375729043E1
1.581346000E0,6.098917236E0,1.347288300E1,2.610421600E0,1.501764524E1
1.591354000E0,5.879323883E0,1.497321304E1,2.371668091E0,1.626002361E1
1.601362000E0,5.202281799E0,1.537318130E1,2.074835358E0,1.636164359E1
1.611371000E0,3.985462189E0,1.369816452E1,1.103954315E0,1.430882019E1
1.621379000E0,2.685565338E0,1.152812714E1,-3.478765869E-1,1.184191685E1
1.631387000E0,1.689985657E0,9.668095093E0,-7.246430969E-1,9.841403450E0
1.641396000E0,1.059945831E0,8.023165741E0,-7.914042664E-1,8.131481684E0
1.651404000E0,6.153703308E-1,6.779252472E0,-5.466632080E-1,6.829039858E0
1.661412000E0,5.093907166E-1,6.165528717E0,1.483415222E-1,6.188313863E0
1.671421000E0,6.366261292E-1,6.134393463E0,9.898915100E-1,6.246275786E0
1.681429000E0,7.991880798E-1,6.807843018E0,1.748364258E0,7.074051577E0
1.691437000E0,1.020428009E0,8.134833527E0,2.428998871E0,8.550837698E0
1.701446000E0,1.271605682E0,9.830806732E0,2.733166351E0,1.028260377E1
1.711454000E0,1.467398529E0,1.119941071E1,2.619253235E0,1.159484998E1
1.721462000E0,1.570683746E0,1.205143890E1,2.345322876E0,1.237759130E1
1.731470000E0,1.637744293E0,1.234902008E1,2.097138977E0,1.263243821E1
1.741479000E0,1.614692230E0,1.199111435E1,1.795965271E0,1.223190687E1
1.751487000E0,1.493144989E0,1.082683548E1,1.313219147E0,1.100792410E1
1.761495000E0,1.345851288E0,9.321565704E0,8.704399109E-1,9.458359716E0
1.771504000E0,1.293460236E0,7.983647919E0,5.920188904E-1,8.109387143E0
1.781512000E0,1.250798950E0,7.077881470E0,2.727328491E-1,7.192724610E0
1.791520000E0,1.167422333E0,6.638096008E0,6.885681152E-3,6.739973363E0
1.801529000E0,1.162033539E0,6.662046204E0,-1.543290710E-1,6.764391992E0
1.811537000E0,1.154549103E0,7.057972870E0,-2.505789185E-1,7.156168979E0
1.821545000E0,1.075962524E0,7.761958923E0,-2.386038208E-1,7.839810805E0
1.831554000E0,9.984237671E-1,8.564589844E0,-1.504371643E-1,8.623901701E0
1.841562000E0,9.011260986E-1,9.283395081E0,3.098556519E-2,9.327079531E0
1.851570000E0,7.908055115E-1,9.761500854E0,2.392025757E-1,9.796401899E0
1.861579000E0,6.858737183E-1,9.951605530E0,4.755610657E-1,9.986542630E0
1.871587000E0,6.662644958E-1,9.765093384E0,8.393046570E-1,9.823715666E0
1.881595000E0,7.843688965E-1,9.304650879E0,1.226100311E0,9.417806779E0
1.891603000E0,9.255253601E-1,8.805588684E0,1.498833160E0,8.980060696E0
1.901612000E0,1.073417816E0,8.455915833E0,1.749711456E0,8.701507258E0
1.911620000E0,1.259780273E0,8.314160614E0,1.936522980E0,8.629161854E0
1.921628000E0,1.493743744E0,8.362061005E0,2.146236877E0,8.761373600E0
1.931637000E0,1.760189667E0,8.531358948E0,2.393223267E0,9.033818172E0
1.941645000E0,2.050585785E0,8.734785919E0,2.621797943E0,9.347470865E0
1.951653000E0,2.323618011E0,8.904233551E0,2.810106354E0,9.621916312E0
1.961662000E0,2.585872650E0,8.980275421E0,2.877915344E0,9.778265732E0
1.971670000E0,2.833607483E0,8.919052734E0,2.817890167E0,9.773399513E0
1.981678000E0,3.075055389E0,8.766819305E0,2.630030823E0,9.655576032E0
1.991687000E0,3.372636566E0,8.544681244E0,2.263143768E0,9.460870715E0
2.001695000E0,3.683540039E0,8.377778320E0,1.762434998E0,9.319968558E0
2.011703000E0,4.037404175E0,8.310418396E0,1.053060150E0,9.299065656E0
2.021712000E0,4.310137024E0,8.347541199E0,4.140390015E-1,9.403730830E0
2.031720000E0,4.646936646E0,8.369844818E0,-3.876937866E-1,9.581160104E0
2.041728000E0,5.048551483E0,8.345744934E0,-1.091829529E0,9.814857223E0
2.051736000E0,5.242098999E0,8.448281708E0,-1.417552185E0,1.004303340E1
2.061745000E0,5.340743866E0,8.556955719E0,-1.138233032E0,1.015089211E1
2.071753000E0,5.308111725E0,8.625513153E0,-3.065625000E-1,1.013259630E1
2.081761000E0,5.268893280E0,8.798104248E0,4.514611816E-1,1.026507145E1
2.091770000E0,5.441334686E0,9.023535461E0,1.057550812E0,1.059012413E1
2.101778000E0,5.585035858E0,9.289083252E0,1.455273743E0,1.093606487E1
2.111786000E0,5.804030457E0,9.496551819E0,1.829944611E0,1.127918274E1
2.121795000E0,6.024222565E0,9.602082367E0,2.250420227E0,1.155662730E1
2.131803000E0,5.927373962E0,9.809401245E0,2.340233459E0,1.169764111E1
2.141811000E0,5.532794495E0,1.001731888E1,2.228116608E0,1.165860180E1
2.151820000E0,5.003195801E0,9.982890472E0,1.801204376E0,1.131080933E1
2.161828000E0,4.511468353E0,9.875713348E0,1.396895142E0,1.094688891E1
2.171836000E0,4.165388031E0,9.820178833E0,1.143771515E0,1.072821435E1
2.181845000E0,3.935615845E0,9.867929535E0,9.714797974E-1,1.066812441E1
2.191853000E0,3.863166504E0,1.003498215E1,8.216413879E-1,1.078424855E1
2.201861000E0,4.066593475E0,1.033046768E1,6.357279968E-1,1.112024708E1
2.211870000E0,4.396357727E0,1.080153809E1,3.053649902E-1,1.166595191E1
2.221878000E0,4.541705475E0,1.133547775E1,-5.557942200E-1,1.222411763E1
2.231886000E0,4.302951965E0,1.173035660E1,-2.764002228E0,1.279673278E1
2.241895000E0,3.782633972E0,1.177526321E1,-4.269122314E0,1.308398062E1
2.251903000E0,3.162922668E0,1.155956177E1,-3.659589844E0,1.253076797E1
2.261911000E0,2.725382538E0,1.109013794E1,-1.655257874E0,1.153944315E1
2.271919000E0,2.435884552E0,1.037507492E1,1.417552185E-1,1.065813341E1
2.281928000E0,2.122136993E0,9.675280151E0,1.025966492E0,9.958268859E0
2.291936000E0,1.725312195E0,9.235644379E0,1.254690857E0,9.478822628E0
2.301944000E0,1.109642487E0,9.001680908E0,1.048270111E0,9.130193637E0
2.311953000E0,4.102967834E-1,8.728798370E0,-1.474134521E0,8.861903691E0
2.321961000E0,1.986369324E-1,8.574918365E0,-9.185798035E0,1.256771925E1
2.331969000E0,-8.562194824E-2,1.063179108E1,-6.348598022E0,1.238333596E1
2.341978000E0,-4.236190796E-2,1.214574280E1,-8.542735291E-1,1.217582219E1
2.351986000E0,7.601193237E-1,1.197285233E1,1.142723694E0,1.205125685E1
2.361994000E0,1.412762146E0,1.209469894E1,1.830094299E0,1.231368688E1
2.372003000E0,2.153571625E0,1.242206818E1,1.461710358E0,1.269181806E1
2.382011000E0,2.820285187E0,1.239662109E1,2.619552612E-1,1.271608602E1
2.392019000E0,3.415148163E0,1.209110641E1,-1.504970398E0,1.265397278E1
2.402028000E0,4.055516510E0,1.163051422E1,-3.546125793E0,1.281760833E1
2.412036000E0,4.585264893E0,1.102083206E1,-4.408332825E0,1.272465291E1
2.422044000E0,4.758754120E0,1.002480331E1,-3.126697998E0,1.152903563E1
2.432053000E0,4.682562561E0,8.643775177E0,-1.675016785E-1,9.832054631E0
2.442061000E0,4.812192993E0,7.205116882E0,2.329455872E0,8.972027382E0
2.452069000E0,5.198689270E0,6.020779724E0,4.133055267E0,8.964279361E0
2.462078000E0,5.401966553E0,5.176385651E0,6.012546844E0,9.598277481E0
2.472086000E0,5.628445587E0,4.342170410E0,7.443720703E0,1.029285293E1
2.482094000E0,5.933960266E0,3.876488800E0,8.233628082E0,1.086423864E1
2.492102000E0,5.867947540E0,4.189038849E0,7.787256317E0,1.061236146E1
2.502111000E0,5.252277832E0,5.429509277E0,5.868695984E0,9.565959752E0
2.512119167E0,4.088148651E0,6.817572784E0,2.986439667E0,8.491824300E0
2.522127167E0,3.022514648E0,8.009394379E0,9.412426758E-1,8.612312749E0
2.532136167E0,2.037712555E0,9.108109589E0,-1.146615601E-1,9.333974502E0
2.542144167E0,1.083446960E0,9.718989258E0,-1.978884888E-1,9.781194680E0
2.552152167E0,4.132905579E-1,9.779164124E0,5.882766724E-1,9.805556052E0
2.562161167E0,-2.185455322E-2,9.457632751E0,2.027982788E0,9.672642300E0
2.572169167E0,-2.104623413E-1,8.902137909E0,3.426374817E0,9.541089987E0
2.582177167E0,-1.354682922E-1,8.259673920E0,4.475393372E0,9.395196153E0
2.592186167E0,2.546205139E-1,7.635172577E0,4.974305878E0,9.116162068E0
2.602194167E0,9.753717041E-1,7.217091980E0,5.103636932E0,8.892967814E0
2.612202167E0,1.487456818E0,7.037016449E0,5.139861603E0,8.840266149E0
2.622211167E0,2.029329987E0,7.060218201E0,5.236560516E0,9.021442638E0
2.632219167E0,2.702180786E0,7.283104706E0,5.442831573E0,9.485241731E0
2.642227167E0,3.486100616E0,7.575746155E0,5.643264771E0,1.006932295E1
2.652236167E0,4.388424225E0,7.793992310E0,5.582940216E0,1.054389894E1
2.662244167E0,5.272635498E0,7.930358734E0,5.357359314E0,1.092669088E1
2.672252167E0,6.006409607E0,8.043074341E0,4.970114594E0,1.120134100E1
2.682261167E0,6.464906158E0,8.118667145E0,4.569547577E0,1.133968840E1
2.692269167E0,6.714886322E0,8.080346832E0,4.330494690E0,1.136375323E1
2.702277167E0,6.828050995E0,7.969277802E0,4.188140717E0,1.129921200E1
2.712286167E0,6.784940643E0,7.919431458E0,3.986659698E0,1.116450938E1
2.722294167E0,6.615493011E0,8.066425781E0,3.700903931E0,1.106926658E1
2.732302167E0,6.316265259E0,8.340056763E0,3.312312012E0,1.097374888E1
2.742310167E0,5.987399139E0,8.516090698E0,2.931354218E0,1.081506296E1
2.752319167E0,5.661227417E0,8.449030151E0,2.679128723E0,1.051728753E1
2.762327167E0,5.400769043E0,8.360713806E0,2.682122498E0,1.030842484E1
2.772335167E0,5.169350281E0,8.450377350E0,2.793790283E0,1.029253729E1
2.782344167E0,5.046755219E0,9.047186279E0,2.939138031E0,1.076846554E1
