Time (s),Acceleration x (m/s^2),Acceleration y (m/s^2),Acceleration z (m/s^2),Absolute acceleration (m/s^2),Action,Placement
0.304,0.11073985678696346,-1.0850093952466944,-0.052700142250500764,-0.3776574536023664,1.0,0.0
0.314,0.0976801216854953,-1.0805588199728524,-0.04365173853903642,-0.3840390577896877,1.0,0.0
0.324,0.07755746862098817,-1.0779034347254344,-0.04061930053843756,-0.38972448697475615,1.0,0.0
0.334,0.05192662796266456,-1.0762204440756622,-0.03254910263361803,-0.39453969740700756,1.0,0.0
0.344,0.022875380492051664,-1.075472448231319,-0.015767003814820005,-0.3979045432512317,1.0,0.0
0.354,-0.002444514092427501,-1.075248049478016,0.005489408363571233,-0.39877476200404843,1.0,0.0
0.364,-0.022389483686166292,-1.0753976486468846,0.02528829389006195,-0.39807858700179516,1.0,0.0
0.374,-0.040157830762993806,-1.076183044283445,0.03812235407324154,-0.3962221203291199,1.0,0.0
0.384,-0.0538883209666122,-1.0774920370110455,0.04423614036477152,-0.3925672015672905,1.0,0.0
0.394,-0.06335440787179203,-1.0791376278686005,0.04511652559075184,-0.3882161078032076,1.0,0.0
0.404,-0.06859607025945615,-1.0812694160249787,0.03983421423486999,-0.3836329557050404,1.0,0.0
0.414,-0.069173541539453,-1.0833638043891398,0.031617285459053734,-0.38113832861363267,1.0,0.0
0.425,-0.06388745828409687,-1.084186599817917,0.02447638307054672,-0.38316883903687166,1.0,0.0
0.435,-0.051893824007238284,-1.0830646060514022,0.020270098101974103,-0.3918130119815156,1.0,0.0
0.445,-0.034614106475023575,-1.0799978230895952,0.01528124848808569,-0.4063166578617917,1.0,0.0
0.455,-0.014580295145900606,-1.0760708449067935,0.00432534345366402,-0.4246492662544604,1.0,0.0
0.465,0.0057200413893747784,-1.0734528594515924,-0.013967105130593582,-0.44257577256248176,1.0,0.0
0.475,0.022599971112360867,-1.0749114513480615,-0.036534313089888956,-0.45342449968092785,1.0,0.0
0.485,0.034726867992295594,-1.080222221842898,-0.058974354294320463,-0.45574508302177213,1.0,0.0
0.495,0.0433445163245569,-1.0879265790396329,-0.07763852108510308,-0.4518581059258579,1.0,0.0
0.505,0.04960785866913864,-1.0945837420542872,-0.09068778654574464,-0.446868851743043,1.0,0.0
0.515,0.0533836324229644,-1.097800124184963,-0.09491363563045008,-0.4441421663175514,1.0,0.0
0.525,0.054627416718342356,-1.0976879248083113,-0.08988565778429589,-0.44472231215276253,1.0,0.0
0.535,0.0540499454383455,-1.0956683360285848,-0.07706137965918264,-0.44762304132881764,1.0,0.0
0.546,0.05102932643528482,-1.0936861470410753,-0.06027536801715802,-0.45005965383670404,1.0,0.0
0.556,0.04441061714916656,-1.091703958053566,-0.04245245822008995,-0.4516840621752947,1.0,0.0
0.566,0.03434484853014373,-1.0896469694816222,-0.02915864130778724,-0.4527283246786746,1.0,0.0
0.576,0.02335956794989515,-1.0877769798707644,-0.02349091686408731,-0.45342449968092785,1.0,0.0
0.586,0.0147818983985568,-1.0861313890132092,-0.02710049629060657,-0.45435273301726564,1.0,0.0
0.596,0.009673498613968842,-1.0844857981556544,-0.03774337546690191,-0.45632522885698296,1.0,0.0
0.606,0.007630138700133706,-1.083176805428054,-0.051526295282527,-0.4588778705319114,1.0,0.0
0.616,0.0057200413893747784,-1.0819426122848874,-0.06460490691736788,-0.46102441012219253,1.0,0.0
0.626,0.0024773180478537193,-1.0813068158171957,-0.07757591591347784,-0.46206867262557244,1.0,0.0
0.636,-0.0003656174844385969,-1.0815312145704985,-0.09334361531078525,-0.46177859970796686,1.0,0.0
0.646,-0.0018759269859690256,-1.0825784087525792,-0.11291751350174752,-0.46056029345402383,1.0,0.0
0.656,-0.002053610456737261,-1.083924801272397,-0.1341641436220724,-0.4594000017836012,1.0,0.0
0.666,-0.002320135662889614,-1.08467279711674,-0.15375760592916757,-0.4588778705319114,1.0,0.0
0.677,-0.0036971825613438354,-1.0842987991945685,-0.16935998854515202,-0.4595740455341647,1.0,0.0
0.687,-0.005296333798258321,-1.0828028075058822,-0.18037302079868173,-0.46154654137388235,1.0,0.0
0.697,-0.006584538961328241,-1.0803344212195498,-0.1891866551165513,-0.46520146013571173,1.0,0.0
0.707,-0.006806643299788566,-1.0773798376343942,-0.19527109523388186,-0.46972659765035785,1.0,0.0
0.717,-0.005962646813639295,-1.07479925197141,-0.19847961027967684,-0.4742517351650043,1.0,0.0
0.727,-0.004896545989029638,-1.0737894575815468,-0.20101316331888686,-0.47628224558824267,1.0,0.0
0.737,-0.004763283385953431,-1.0745748532181074,-0.20316521609350538,-0.4752959976683838,1.0,0.0
0.747,-0.0060959094167155016,-1.076856240543354,-0.2058063717714463,-0.47187313724063895,1.0,0.0
0.757,-0.008761161478239644,-1.0802596216351152,-0.20883880977204516,-0.46607167888852846,1.0,0.0
0.767,-0.012048305687452732,-1.0844483983634372,-0.21128432428865715,-0.4587618413648693,1.0,0.0
0.777,-0.015113345558205434,-1.0887119746761935,-0.21226253009530197,-0.4512779600906471,1.0,0.0
0.787,-0.01760091414896128,-1.0921153557679548,-0.21210601716623878,-0.44507039965388884,1.0,0.0
0.797,-0.01942216972433609,-1.0942471439243329,-0.2122136198049697,-0.44100937880741176,1.0,0.0
0.808,-0.021065741828942663,-1.0946211418465044,-0.21532568375822944,-0.43926894130177896,1.0,0.0
0.818,-0.026929296364295776,-1.0858695904676892,-0.24600221785461013,-0.445244443404452,1.0,0.0
0.828,-0.05065003971186039,-1.0568099519149565,-0.2941495076576668,-0.4464047350748743,1.0,0.0
0.838,-0.08254422271476568,-1.0374368595464682,-0.3142418549261508,-0.4394429850523418,1.0,0.0
0.848,-0.10746432949001622,-1.0428224296257391,-0.3128136744484494,-0.4168172974791115,1.0,0.0
0.858,-0.1294526589975902,-1.0572213496293454,-0.3136158032098981,-0.38479324737546206,1.0,0.0
0.868,-0.14855363210517972,-1.0725926642305976,-0.31891670047610626,-0.35300125560589773,1.0,0.0
0.878,-0.15717128043744102,-1.0881135780007187,-0.3042436133764344,-0.32556035760041574,1.0,0.0
0.888,-0.15885927340973963,-1.1014653038222442,-0.2942170038583252,-0.3047331221163393,1.0,0.0
0.898,-0.1598809533666572,-1.11429343255273,-0.2991383572715552,-0.2850081637191638,1.0,0.0
0.908,-0.15646054655436797,-1.1240547783214083,-0.3022588337947521,-0.27085260534001493,1.0,0.0
0.918,-0.15091682226639774,-1.1280191562964272,-0.30559451559541084,-0.2659793803242422,1.0,0.0
0.929,-0.14214370089721415,-1.1265979641921753,-0.30801068393782344,-0.2692862115849453,1.0,0.0
0.939,-0.129834678459742,-1.1204269984763442,-0.30222948762055274,-0.27938074911761707,1.0,0.0
0.949,-0.11628631381366109,-1.1104786537465796,-0.28088601512537004,-0.2937683658308508,1.0,0.0
0.959,-0.0950531390568522,-1.0962667327040596,-0.24047633325287368,-0.3080979679605635,1.0,0.0
0.969,-0.06249264303856588,-1.0808206185183726,-0.19115519648184326,-0.31523376173365913,1.0,0.0
0.979,-0.022691545586472354,-1.0638785126439996,-0.13908530139414102,-0.31732228674041885,1.0,0.0
0.989,0.015776925834859103,-1.043233827340128,-0.0896369978682468,-0.32352984717717675,1.0,0.0
0.999,0.049936573090059964,-1.028423509622133,-0.053581896964610395,-0.3315358597030891,1.0,0.0
1.01,0.08427390381602894,-1.0224769426596045,-0.03420363993497705,-0.33223203470534235,1.0,0.0
1.02,0.11838913020353771,-1.0219533455685645,-0.036120923316000884,-0.32770689719069623,1.0,0.0
1.03,0.14966142105875405,-1.0241973331015943,-0.05141028007385897,-0.32086117633520583,1.0,0.0
1.04,0.17733562163091282,-1.0287601077520874,-0.07264712813611739,-0.3130292075598569,1.0,0.0
1.05,0.20265551621539193,-1.03478147429905,-0.09798265852821754,-0.3044430491987337,1.0,0.0
1.06,0.22668720563680106,-1.0394938481184122,-0.12732883272756124,-0.2980614450114124,1.0,0.0
1.07,0.2494751107628323,-1.0406532416771441,-0.15745757157222082,-0.2980614450114124,1.0,0.0
1.08,0.27097481072579355,-1.0395312479106293,-0.182597460802992,-0.30276062627662137,1.0,0.0
1.09,0.29180819767337374,-1.0399052458328006,-0.1983172281157738,-0.3062415012878879,1.0,0.0
1.1,0.3130413724301826,-1.0410272395993154,-0.2030126159876688,-0.30798193879352104,1.0,0.0
1.11,0.3331329308873052,-1.0428972292101737,-0.19738793259946122,-0.30856208462873186,1.0,0.0
1.12,0.35177192697089726,-1.0455900142498091,-0.1852959393412023,-0.30798193879352104,1.0,0.0
1.13,0.3723547802246942,-1.0563237546161335,-0.1445047572041145,-0.3014262908556362,1.0,0.0
1.14,0.407802632642965,-1.0870663838186383,-0.0866927940314073,-0.3002659991852139,1.0,0.0
1.15,0.4479590970365951,-1.1084216651746361,-0.05803136389671491,-0.30664760337253594,1.0,0.0
1.16,0.47772107839028105,-1.1054296817972635,-0.053316411908687016,-0.32695270760492195,1.0,0.0
1.17,0.5020637138855347,-1.0942097441321157,-0.047721074694678796,-0.3547997076950519,1.0,0.0
1.18,0.5225417338915783,-1.082241810622625,-0.03725525076938616,-0.3820665619499704,1.0,0.0
1.19,0.5320922204453731,-1.0695258812687907,-0.04713512941649856,-0.40527239535841186,1.0,0.0
1.2,0.534002317756132,-1.0581189446425572,-0.0524565690046462,-0.42325691624995393,1.0,0.0
1.21,0.5348463142422814,-1.045814413003112,-0.041979006609673894,-0.4418795975602285,1.0,0.0
1.22,0.5305819109438428,-1.035267671597873,-0.03242193587875427,-0.45661530177458853,1.0,0.0
1.23,0.5230836684774215,-1.029358504427562,-0.02205295432831948,-0.4634610226300786,1.0,0.0
1.24,0.5115564533113297,-1.0282365106610472,-0.012036126868276806,-0.46276484762782566,1.0,0.0
1.25,0.49627123273848894,-1.0314154929995056,-0.010030804964654989,-0.45591912677233526,1.0,0.0
1.26,0.4797910908247315,-1.038222255183029,-0.024498468844931457,-0.44518642882093096,1.0,0.0
1.27,0.45558171793255403,-1.0497039913936963,-0.06172409081679901,-0.4339315996178369,1.0,0.0
1.28,0.4200450237788991,-1.0637289134751309,-0.11914477166684828,-0.42731793709643134,1.0,0.0
1.29,0.377267728191437,-1.0798856237129435,-0.19632520981112236,-0.4224447120806586,1.0,0.0
1.3,0.33555653342858455,-1.0992213162892148,-0.28465719415114704,-0.41194407246333875,1.0,0.0
1.31,0.2987316341118596,-1.1127600410718266,-0.3709349462972177,-0.3973243974160209,1.0,0.0
1.32,0.2645719868566588,-1.1161634221635877,-0.4460611522475377,-0.39123286614630476,1.0,0.0
1.33,0.23343295860451865,-1.1121242446041348,-0.5031101148910619,-0.3938435224047546,1.0,0.0
1.34,0.20504802414928677,-1.1045320867840516,-0.5454566442607149,-0.4010953453448924,1.0,0.0
1.35,0.1787952913432742,-1.0935365478722068,-0.5721616627821179,-0.4136845099689719,1.0,0.0
1.36,0.15436381411263644,-1.0791376278686005,-0.5791069240092959,-0.4334094683661471,1.0,0.0
1.37,0.1271782430850904,-1.063953312228434,-0.5693150838847815,-0.45290236842923776,1.0,0.0
1.38,0.09657226524525507,-1.0492551938870907,-0.5621741814962744,-0.4662457226390916,1.0,0.0
1.39,0.06427829443312118,-1.034332676792444,-0.5779232949832557,-0.47251129765937117,1.0,0.0
1.4,0.02905254635331066,-1.0164929759048593,-0.6212871583918192,-0.47367158932979314,1.0,0.0
1.41,-0.008927295523407935,-0.9977182802118455,-0.7012946113172968,-0.46554954763683865,1.0,0.0
1.42,-0.04412194899583394,-0.9798411795320432,-0.8462647118620549,-0.4324812350298096,1.0,0.0
1.43,-0.07266679857475727,-0.9629364734498875,-1.05100318719281,-0.36982548482701716,1.0,0.0
1.44,-0.09133955451779534,-0.9459195679910802,-1.1999839315448118,-0.33907775556083275,1.0,0.0
1.45,-0.10071235760082174,-0.9259480789471173,-1.238036137423294,-0.36268969105392185,1.0,0.0
1.46,-0.10693127907771138,-0.9010398173304893,-1.217591636064418,-0.3908267640616568,1.0,0.0
1.47,-0.11235062493614378,-0.869212594153687,-1.1792948787342743,-0.4164692099779849,1.0,0.0
1.48,-0.1139941970407503,-0.8308520012744692,-1.1385623889455851,-0.44454826840219874,1.0,0.0
1.49,-0.11150662844999445,-0.7920680427473532,-1.1247696870718937,-0.4878271477089423,1.0,0.0
1.5,-0.10555423217925723,-0.7663369857019477,-1.1698649747582184,-0.5198511978125915,1.0,0.0
1.51,-0.09964625677621208,-0.7618864104281058,-1.2708745063523597,-0.5047674060971046,1.0,0.0
1.52,-0.09866899768698661,-0.7745649399897228,-1.3897265118597018,-0.46293889137838884,1.0,0.0
1.53,-0.10426602701618724,-0.7959576211379378,-1.4612333563254363,-0.4226767704147428,1.0,0.0
1.54,-0.11479377265920748,-0.8209406823389999,-1.4809246392131958,-0.38218259111701286,1.0,0.0
1.55,-0.1278979286283678,-0.8506361173594242,-1.495362956919273,-0.33333431179224327,1.0,0.0
1.56,-0.1462881678528842,-0.8811543478086259,-1.5369367037016766,-0.2791486907835322,1.0,0.0
1.57,-0.17067522421582987,-0.9065488067240769,-1.6089424331287996,-0.2231066031021463,1.0,0.0
1.58,-0.19715006136030286,-0.926108898053651,-1.709937291635841,-0.16364165499301517,1.0,0.0
1.59,-0.2240246863140043,-0.9443599966556248,-1.8346585319830522,-0.09303790684783235,1.0,0.0
1.6,-0.24903363482463894,-0.9703154524543329,-1.9688683686547177,-0.008336614907020434,1.0,0.0
1.61,-0.27097754346452096,-1.0111934253476877,-2.0958394823572117,0.09144846874927781,1.0,0.0
1.62,-0.29487597028285395,-1.0673679132578606,-2.2187021316717974,0.2092180732971181,1.0,0.0
1.63,-0.32565963159345757,-1.1353233357164385,-2.3597594089899765,0.34903321958297756,1.0,0.0
1.64,-0.3648832577655541,-1.2112075141250542,-2.5190113143117485,0.5077031055131964,1.0,0.0
1.65,-0.4046843552176476,-1.290981270924254,-2.6751329610522574,0.6704340122898917,1.0,0.0
1.66,-0.43062614194981574,-1.3655564566052694,-2.8276352463081804,0.8205177398589871,1.0,0.0
1.67,-0.4392882111497692,-1.4293231023355253,-2.9652688033031023,0.9458292402645707,1.0,0.0
1.68,-0.42902699071290124,-1.4852731914923951,-3.0621209602190036,1.041321244740308,1.0,0.0
1.69,-0.40320958241027094,-1.538642694986281,-3.1016404748074526,1.1161600574825314,1.0,0.0
1.7,-0.3694497229642988,-1.5845696398289524,-3.0828589233198733,1.1700556055736362,1.0,0.0
1.71,-0.332713665382958,-1.619239247214259,-3.0204493928559355,1.1979026056637667,1.0,0.0
1.72,-0.2910024706201056,-1.641379924206817,-2.9240961209014236,1.1961621681581327,1.0,0.0
1.73,-0.25000200974032616,-1.6515526676898842,-2.7646485744183225,1.154333653439418,1.0,0.0
1.74,-0.21904066495895422,-1.6549560487816457,-2.5344767481148027,1.076304038603533,1.0,0.0
1.75,-0.19933112596398345,-1.6567512388080692,-2.34617213033568,1.0325030280450993,1.0,0.0
1.77,-0.18864790728404088,-1.662884804731683,-2.2575466842536622,1.0490371843486141,1.0,0.0
1.78,-0.17856881240471054,-1.6755633342933003,-2.2242876868277395,1.0728811781757883,1.0,0.0
1.79,-0.16694387132969613,-1.694300630194097,-2.207756008695442,1.0926061365729636,1.0,0.0
1.8,-0.15961442816050478,-1.7168411109654564,-2.1917134334664676,1.1121570512195755,1.0,0.0
1.81,-0.1568603343635966,-1.736925173383993,-2.1399663462949583,1.148938297171955,1.0,0.0
1.82,-0.15568318136975667,-1.741151349904532,-2.0179840822063526,1.1777715451819437,1.0,0.0
1.83,-0.15155204067439437,-1.721366859821655,-1.848754477656804,1.1537535076042063,1.0,0.0
1.84,-0.13871440991138653,-1.6829198734224151,-1.6761989733646625,1.0955648803325397,1.0,0.0
1.85,-0.11885383996626267,-1.6348611404233662,-1.554705812179379,1.0381304426466464,1.0,0.0
1.86,-0.09635022839346068,-1.5819778342283033,-1.484832571410742,0.9811021070454022,1.0,0.0
1.87,-0.07292266277266361,-1.522912342379744,-1.4260815306636556,0.9124128401564153,1.0,0.0
1.88,-0.045839259740809365,-1.4624518382814846,-1.3434231400021708,0.836297706576727,1.0,0.0
1.89,-0.014389285414824737,-1.405907092428362,-1.229559984108717,0.7572238292374631,1.0,0.0
1.9,0.019281732295763323,-1.3517035735680336,-1.086448474596584,0.6705500414569344,1.0,0.0
1.91,0.05640425142602507,-1.2929484999948768,-0.9162406642403901,0.5661237911189477,1.0,0.0
1.92,0.09214528157106354,-1.2234970858476126,-0.7239254026540242,0.44417713655758756,1.0,0.0
1.93,0.12341757242627988,-1.1392727537745704,-0.5260343679697826,0.30737874861482534,1.0,0.0
1.94,0.15785707114794068,-1.0385551133337612,-0.3194373016064026,0.1534660585333371,1.0,0.0
1.95,0.20015684240771311,-0.9263931364745014,-0.08652649904427773,-0.0176189482703972,1.0,0.0
1.96,0.2523158252517401,-0.8069755999251127,0.16673098429605884,-0.20088701761356337,1.0,0.0
1.97,0.30984084891296904,-0.6830326885174478,0.4113802565379211,-0.38351692653799796,1.0,0.0
1.98,0.35883706597732073,-0.5629793555003674,0.6470300353586518,-0.5439852645573707,1.0,0.0
1.99,0.39148640373099125,-0.45205157178427396,0.856953001464624,-0.6686005899607014,1.0,0.0
2.0,0.4092547508078187,-0.35017453778473284,1.0103356719465273,-0.7631643611001002,1.0,0.0
2.01,0.420040137483453,-0.2569368557873555,1.1028739412551247,-0.8435725738603499,1.0,0.0
2.02,0.4279914728003333,-0.17626550397494353,1.1220174288911633,-0.9184113866025738,1.0,0.0
2.03,0.4330998725849212,-0.11291025595907618,1.05403212532935,-0.9670856221767794,1.0,0.0
2.04,0.4295462031695556,-0.10879627881518869,-0.013386050881446657,-0.4142066412206617,1.0,0.0
2.05,0.4363870167941342,-0.1340785383539882,-0.8018199310371489,-0.005725958648571227,1.0,0.0
2.06,0.42386033210497087,-0.15131984256609848,-0.8828153718273376,0.020090531018320056,1.0,0.0
2.07,0.4095257181007403,-0.16915954345368334,-0.7659197779332849,0.09231868750209421,1.0,0.0
2.08,0.38520529303933276,-0.1871114437179196,-0.6770986906899378,0.15509046687192812,1.0,0.0
2.09,0.35167198001859007,-0.20121116538378858,-0.6025594082236047,0.2127569628919051,1.0,0.0
2.1,0.30828611854374666,-0.23374898461271693,-0.5062061362690927,0.30163530484623585,1.0,0.0
2.11,0.25822380065478523,-0.2978148286807103,-0.41855889599371937,0.42619261566604516,1.0,0.0
2.12,0.20291982037815978,-0.39879426766703957,-0.3475411544313075,0.5928104995386551,1.0,0.0
2.13,0.1433736472369417,-0.5268885560108091,-0.30733689577820655,0.7857089897463246,1.0,0.0
2.14,0.08886924257877346,-0.6653799865909488,-0.3130104894567463,0.9849310695577947,1.0,0.0
2.15,0.07150068331117462,-0.804432414054346,-0.9844509551377314,1.3720623853941187,1.0,0.0
2.16,0.07121638975794539,-0.9149488000560507,-1.561885842800152,1.6911425947601886,1.0,0.0
2.17,0.04906814512667993,-0.9981259379470124,-1.4249370298698811,1.836933243148723,1.0,0.0
2.18,0.03234813052738531,-1.056069436029057,-1.3897216208306684,1.9154849892362968,1.0,0.0
2.19,0.019612667760069216,-1.0910606816274309,-1.5017261856914974,1.9562112268681116,1.0,0.0
2.2,0.005486831833991325,-1.1163018013947914,-1.7711240648414728,2.066032833473561,1.0,0.0
2.21,-0.005307439015181327,-1.1491874386913394,-1.9298868672599228,2.1266000586695935,1.0,0.0
2.22,-0.012401451585604639,-1.1956005808328338,-1.9596927981883892,2.1677904129695773,1.0,0.0
2.23,-0.019757547275411232,-1.253084061470607,-1.9994079539381682,2.2224401506464564,1.0,0.0
2.24,-0.03130697287534904,-1.3186084974350696,-2.073555954081843,2.2919416217047384,1.0,0.0
2.25,-0.05113200612631932,-1.3942682770903825,-2.1750937168115727,2.3779772490665354,1.0,0.0
2.26,-0.07806215716463591,-1.477258416020258,-2.2658712156682097,2.467841838940725,1.0,0.0
2.27,-0.11134227123953379,-1.563764135418547,-2.3371824189726143,2.5559659913092814,1.0,0.0
2.28,-0.15029937220547804,-1.6499332566868812,-2.406145928341073,2.639390962412629,1.0,0.0
2.29,-0.1908112035406447,-1.7337087912533171,-2.486750086808603,2.70993669597429,1.0,0.0
2.3,-0.22741399851890925,-1.8165867308065415,-2.5739082241806543,2.7672551044931404,1.0,0.0
2.31,-0.25841976416797297,-1.896023889475787,-2.6520668681315738,2.81714764632129,1.0,0.0
2.32,-0.2885815333308878,-1.9671956940650406,-2.7143785780148466,2.8633272548040885,1.0,0.0
2.33,-0.319143090303031,-2.0291671497688735,-2.7379239917807867,2.911479359126605,1.0,0.0
2.34,-0.3468172908751898,-2.079432470508735,-2.694687295127087,2.9427492196444796,1.0,0.0
2.35,-0.36942751253045264,-2.0760290894169735,-1.653846970682829,2.3811680511601963,1.0,0.0
2.36,-0.40394252672719005,-2.0471190500331096,-0.9015088847923196,1.969496566494445,1.0,0.0
2.37,-0.4127378585302196,-2.0254645703393743,-0.882433871562746,1.939851114315161,1.0,0.0
2.38,-0.4126490167948355,-1.9982375216052823,-1.0894222202487842,1.856426143211814,1.0,0.0
2.39,-0.39563582446877316,-1.9630069173367188,-1.2835960728677753,1.771376763769876,1.0,0.0
2.4,-0.3656517387766268,-1.9245711508751444,-1.4618251708384564,1.682672465566108,1.0,0.0
2.41,-0.32458020450854014,-1.8636581092910578,-1.6551186382314673,1.5602616943365797,1.0,0.0
2.42,-0.2740381412485045,-1.7696350316571203,-1.8329564538794902,1.401823866740446,1.0,0.0
