"Time (s)","Acceleration x (m/s^2)","Acceleration y (m/s^2)","Acceleration z (m/s^2)","Absolute acceleration (m/s^2)"
7.787916111E-4,3.376528473E0,-9.332193604E0,1.113085327E0,9.986477904E0
1.085779164E-2,3.114872589E0,-9.244026947E0,1.086740112E0,9.815063398E0
2.093579166E-2,2.944526825E0,-9.204958191E0,1.028660889E0,9.719034764E0
3.101479169E-2,2.847079468E0,-9.252409515E0,9.349557495E-1,9.725589216E0
4.109379160E-2,2.789149933E0,-9.285341034E0,8.574169922E-1,9.733040602E0
5.117179162E-2,2.712060242E0,-9.308243408E0,8.520281982E-1,9.732657302E0
6.125079165E-2,2.695145416E0,-9.281149750E0,9.141490173E-1,9.707688598E0
7.132979168E-2,2.747686157E0,-9.264534302E0,1.031355286E0,9.718285279E0
8.140933327E-2,2.893632660E0,-9.281149750E0,1.143023071E0,9.788735995E0
9.148733329E-2,3.109932861E0,-9.255852356E0,1.258133698E0,9.845069103E0
1.015663333E-1,3.284020844E0,-9.228010254E0,1.310375061E0,9.882208708E0
1.116453334E-1,3.375480652E0,-9.183253326E0,1.328936462E0,9.873807949E0
1.217233333E-1,3.439098358E0,-9.150621185E0,1.269959106E0,9.857690486E0
1.318023333E-1,3.438499603E0,-9.138346710E0,1.182091827E0,9.835141138E0
1.418813333E-1,3.404520264E0,-9.144783325E0,1.073866882E0,9.816873758E0
1.519603333E-1,3.356320496E0,-9.152567139E0,9.942324829E-1,9.799126019E0
1.620383334E-1,3.265309753E0,-9.172475739E0,9.060658264E-1,9.778420846E0
1.721173333E-1,3.173550568E0,-9.184001770E0,7.985893250E-1,9.749618281E0
1.821963333E-1,3.127446442E0,-9.183552704E0,7.328759766E-1,9.729114487E0
1.922743333E-1,3.094963989E0,-9.212292938E0,6.801855469E-1,9.742063213E0
2.023533334E-1,3.053649902E0,-9.266480255E0,6.713539124E-1,9.779731598E0
2.124323333E-1,3.016377411E0,-9.297765198E0,7.294331360E-1,9.801991790E0
2.225103333E-1,2.970123596E0,-9.313482513E0,8.535250854E-1,9.812802646E0
2.325893333E-1,2.938090210E0,-9.340576172E0,9.583071899E-1,9.838551213E0
2.426683333E-1,2.898871765E0,-9.347461853E0,1.041683807E0,9.841930997E0
2.527473333E-1,2.880609741E0,-9.332343292E0,1.072220306E0,9.825487275E0
2.628253333E-1,2.846630402E0,-9.273815002E0,1.063688049E0,9.759015402E0
2.729043333E-1,2.857108612E0,-9.242080994E0,1.005159760E0,9.725712152E0
2.829833333E-1,2.880909119E0,-9.234446869E0,9.312135315E-1,9.718117357E0
2.930613334E-1,2.907553711E0,-9.258995819E0,8.316705322E-1,9.740356669E0
3.031403333E-1,2.980601807E0,-9.283844147E0,7.855664063E-1,9.782170713E0
3.132193333E-1,3.023562469E0,-9.294771423E0,7.521858215E-1,9.803085704E0
3.232973333E-1,3.052901459E0,-9.286688232E0,7.381150818E-1,9.803448348E0
3.333763334E-1,3.088527374E0,-9.296717377E0,7.379653931E-1,9.824080020E0
3.434553333E-1,3.069067841E0,-9.327403564E0,7.150630188E-1,9.845351684E0
3.535343333E-1,3.095712433E0,-9.340426483E0,7.080276489E-1,9.865510910E0
3.636123333E-1,3.143463135E0,-9.375753021E0,7.331753540E-1,9.915828321E0
3.736913333E-1,3.209625549E0,-9.373358002E0,7.441026306E-1,9.935553589E0
3.837703333E-1,3.302582245E0,-9.341623993E0,7.593708801E-1,9.937284963E0
3.938483333E-1,3.330274658E0,-9.303153992E0,7.310797119E-1,9.908273363E0
4.039273333E-1,3.328777771E0,-9.236692200E0,6.839277649E-1,9.842001901E0
4.140063333E-1,3.343447266E0,-9.181606750E0,6.339317322E-1,9.791956474E0
4.240843334E-1,3.377725983E0,-9.127120056E0,6.524931335E-1,9.753927446E0
4.341633333E-1,3.420387268E0,-9.052425385E0,7.209008789E-1,9.703873066E0
4.442423333E-1,3.453618164E0,-8.979976044E0,7.801776123E-1,9.652778112E0
4.543213333E-1,3.381318512E0,-8.956624603E0,7.605683899E-1,9.603796303E0
4.643993333E-1,3.104993134E0,-8.968749390E0,6.905140686E-1,9.516105172E0
4.744783333E-1,2.772085419E0,-8.968150635E0,6.167175293E-1,9.407046502E0
4.845573333E-1,2.528841248E0,-9.057215424E0,5.956114197E-1,9.422470071E0
4.946353333E-1,2.377505951E0,-9.265133057E0,5.984555054E-1,9.584016595E0
5.047143333E-1,2.261946259E0,-9.411977692E0,6.897656250E-1,9.704509342E0
5.147933334E-1,2.164349213E0,-9.444460144E0,8.321195984E-1,9.724950280E0
5.248713333E-1,2.133064270E0,-9.481582947E0,1.015637970E0,9.771483963E0
5.349503333E-1,2.184407501E0,-9.466165009E0,1.166673889E0,9.784735258E0
5.450293333E-1,2.439477081E0,-9.411378937E0,1.255738678E0,9.803161814E0
5.551083334E-1,2.858156433E0,-9.303153992E0,1.226848755E0,9.809326697E0
5.651863333E-1,3.212020569E0,-9.274114380E0,1.018781433E0,9.867329389E0
5.752653333E-1,3.493285675E0,-9.373208313E0,7.457492065E-1,1.003076372E1
5.853443333E-1,3.769461365E0,-9.561367035E0,5.721102905E-1,1.029348769E1
5.954223333E-1,3.943100281E0,-9.652078400E0,4.587959290E-1,1.043652964E1
6.055013334E-1,4.012406158E0,-9.555229797E0,4.528083801E-1,1.037337241E1
6.155803333E-1,4.005670166E0,-9.387877808E0,4.640350342E-1,1.021728788E1
6.256583333E-1,3.943699036E0,-9.280251617E0,4.188290405E-1,1.009213803E1
6.357373333E-1,3.861968994E0,-9.266330566E0,3.498225403E-1,1.004500187E1
6.458163334E-1,3.830384674E0,-9.343420258E0,2.894979858E-1,1.010223529E1
6.558953333E-1,3.739523621E0,-9.436975708E0,1.898052979E-1,1.015266337E1
6.659733333E-1,3.521427155E0,-9.488318939E0,4.046086121E-1,1.012878836E1
6.760523333E-1,3.388503571E0,-9.503138123E0,8.228388977E-1,1.012268020E1
6.861313334E-1,3.370540924E0,-9.397906952E0,1.179247742E0,1.005344848E1
6.962093333E-1,3.278033295E0,-9.260193329E0,1.321002960E0,9.911696706E0
7.062883333E-1,3.012934570E0,-9.177714844E0,1.272653503E0,9.743093524E0
7.163673333E-1,2.858156433E0,-9.092092896E0,1.212478638E0,9.607565553E0
7.264453333E-1,2.884501648E0,-9.052275696E0,1.200353851E0,9.576267248E0
7.365243334E-1,3.071762238E0,-9.045390015E0,1.208886108E0,9.628925661E0
7.466033333E-1,3.250041504E0,-9.055868225E0,1.264869690E0,9.704195712E0
7.566823333E-1,3.331771545E0,-9.029223633E0,1.308279419E0,9.712835635E0
7.667603333E-1,3.320544891E0,-8.929231567E0,1.404379578E0,9.629614570E0
7.768393334E-1,3.316054230E0,-8.867410126E0,1.541045380E0,9.591767244E0
7.869183333E-1,3.266357574E0,-8.803193665E0,1.687291260E0,9.540034711E0
7.969963333E-1,3.186573486E0,-8.738977203E0,1.839674377E0,9.482002687E0
8.070753333E-1,3.168461151E0,-8.628656616E0,2.102827148E0,9.429461442E0
8.171543333E-1,3.135978699E0,-8.444240112E0,2.424059143E0,9.328216132E0
8.272323334E-1,3.221151581E0,-8.242459717E0,2.718796234E0,9.257743389E0
8.373113333E-1,3.345393219E0,-8.107141113E0,2.972368927E0,9.260257548E0
8.473903333E-1,3.365750885E0,-8.015082550E0,3.122955780E0,9.237027666E0
8.574693333E-1,3.228636017E0,-7.968828735E0,3.169209595E0,9.163526144E0
8.675473334E-1,2.906505890E0,-7.914940796E0,3.047213287E0,8.965465582E0
8.776263333E-1,2.602488098E0,-7.898774414E0,2.775079193E0,8.767248489E0
8.877053333E-1,2.435734863E0,-8.085885315E0,2.440674591E0,8.790406026E0
8.977833333E-1,2.401007080E0,-8.661438446E0,1.947001190E0,9.196530030E0
9.078623333E-1,2.185305634E0,-9.572593689E0,9.087602234E-1,9.860829366E0
9.179413333E-1,1.853445740E0,-1.052476364E1,-7.054829407E-1,1.070997745E1
9.280193333E-1,1.364263000E0,-1.173754166E1,-5.098846893E0,1.286970619E1
9.380983333E-1,2.171983337E-1,-1.363394806E1,-1.274554550E1,1.866495767E1
9.481773333E-1,1.191222839E0,-1.355476273E1,-8.273594971E0,1.592491690E1
9.582563334E-1,2.836002502E0,-1.227597198E1,-4.204456787E0,1.328231363E1
9.683343333E-1,3.815266113E0,-1.130583939E1,-2.346071320E0,1.216068708E1
9.784133333E-1,4.318519592E0,-1.043045975E1,-1.388811951E0,1.137422088E1
9.884923333E-1,4.434528351E0,-9.382039948E0,-1.271455994E0,1.045487043E1
9.985703334E-1,4.389621735E0,-8.420289917E0,-1.309177551E0,9.585614593E0
1.008649333E0,4.461622009E0,-7.885302429E0,-1.048868866E0,9.120536785E0
1.018728333E0,4.708159332E0,-7.818241882E0,-6.405180359E-1,9.148876094E0
1.028807333E0,4.689747620E0,-8.001311188E0,-1.648072815E-1,9.275875964E0
1.038885333E0,4.412224731E0,-8.448880463E0,3.986210632E-1,9.539926986E0
1.048964333E0,3.929328918E0,-9.159153442E0,1.066532135E0,1.002333319E1
1.059043333E0,3.249592438E0,-9.964478760E0,1.449735260E0,1.058075708E1
1.069121333E0,2.408790894E0,-1.087024521E1,1.271006927E0,1.120624661E1
1.079199708E0,1.720671844E0,-1.088491470E1,1.087189178E0,1.107357485E1
1.089278708E0,9.963281250E-1,-1.039184006E1,1.221459961E0,1.051070759E1
1.099356708E0,3.471281433E-1,-1.004785538E1,1.324296112E0,1.014069306E1
1.109435708E0,-2.694396973E-3,-9.711055756E0,1.194515991E0,9.784246501E0
1.119514708E0,-1.782792664E-1,-9.362730103E0,1.053658905E0,9.423518216E0
1.129593708E0,1.017883301E-2,-9.020391998E0,9.723779297E-1,9.072656405E0
1.139671708E0,6.906637573E-1,-8.693621521E0,8.855584717E-1,8.765859078E0
1.149750708E0,1.489552460E0,-8.561147003E0,9.382489014E-1,8.740269764E0
1.159829708E0,1.991309052E0,-8.667126617E0,1.033750305E0,8.952822752E0
1.169907708E0,2.397863617E0,-8.939260712E0,1.060544586E0,9.315840639E0
1.179986708E0,2.697390747E0,-9.385482788E0,1.122366028E0,9.829695291E0
1.190065708E0,2.955005035E0,-9.830357666E0,1.069825287E0,1.032048995E1
1.200143708E0,3.475772095E0,-1.014679962E1,9.882449341E-1,1.077103348E1
1.210222708E0,4.203408966E0,-1.038121216E1,1.261277161E0,1.127071572E1
1.220301708E0,5.103487244E0,-1.056517960E1,1.787133636E0,1.186854871E1
1.230380708E0,6.128256226E0,-1.053973251E1,2.500250702E0,1.244559116E1
1.240458708E0,7.136409760E0,-1.007045837E1,3.194357300E0,1.274936840E1
1.250537708E0,7.623496857E0,-9.787995758E0,3.623514862E0,1.292487622E1
1.260616708E0,7.259902954E0,-9.554481354E0,3.560645599E0,1.251688867E1
1.270694708E0,6.211483154E0,-9.526938629E0,2.951113129E0,1.174964473E1
1.280773708E0,4.917873230E0,-9.655970306E0,2.061213684E0,1.103049598E1
1.290852708E0,4.377347260E0,-9.707313538E0,7.104226685E-1,1.067229148E1
1.300931708E0,4.482129364E0,-9.626481628E0,-1.026565247E0,1.066829266E1
1.311009708E0,4.882846069E0,-9.184600525E0,-3.510948944E0,1.097842589E1
1.321088708E0,4.973258057E0,-8.358468475E0,-7.064708862E0,1.202112317E1
1.331167708E0,4.354893951E0,-7.624993744E0,-1.158231445E1,1.453463584E1
1.341245708E0,2.498155060E0,-7.979756012E0,-1.568917419E1,1.777828652E1
1.351324708E0,6.771917725E-1,-9.085207214E0,-1.520059021E1,1.772166814E1
1.361403708E0,7.623646545E-1,-1.001851639E1,-1.220980957E1,1.581237870E1
1.371481708E0,2.705024872E0,-1.060499680E1,-8.680897980E0,1.396929155E1
1.381560708E0,4.717739410E0,-1.086874832E1,-4.532873840E0,1.268596470E1
1.391639708E0,5.814658356E0,-1.080842377E1,-8.120613098E-1,1.230006991E1
1.401718708E0,5.674400024E0,-1.031055908E1,8.143066406E-1,1.179701401E1
1.411796708E0,5.048551483E0,-9.660460968E0,1.178050232E0,1.096358429E1
1.421875708E0,5.040168915E0,-8.909772034E0,1.180594940E0,1.030442355E1
1.431954708E0,5.133574677E0,-7.879464569E0,1.383423157E0,9.505441099E0
1.442032708E0,4.778363342E0,-6.772815857E0,2.280807037E0,8.596852424E0
1.452111708E0,4.515509949E0,-6.048023071E0,3.155438232E0,8.180782579E0
1.462190708E0,5.038821716E0,-5.640720062E0,3.187321930E0,8.207707853E0
1.472269708E0,5.341791687E0,-4.885989532E0,2.469414825E0,7.648898072E0
1.482347708E0,5.553750916E0,-3.907773743E0,1.494791565E0,6.953362257E0
1.492426708E0,5.675747223E0,-3.237617340E0,6.876699829E-1,6.570324390E0
1.502505708E0,5.761518860E0,-2.613415375E0,1.766326904E-2,6.326559214E0
1.512583708E0,5.530399475E0,-2.100432129E0,-2.131567383E-1,5.919676450E0
1.522662708E0,5.056185608E0,-2.054926758E0,-2.559677124E-2,5.457874318E0
1.532741708E0,4.663851471E0,-2.668201447E0,1.666035461E-1,5.375738670E0
1.542819708E0,4.158053284E0,-3.874692535E0,1.821711731E-1,5.686460735E0
1.552898708E0,3.757486267E0,-5.466033325E0,1.350192261E-1,6.634338969E0
1.562977708E0,3.170257416E0,-7.091652832E0,2.095642090E-3,7.768016244E0
1.573056708E0,2.708467712E0,-8.739126892E0,3.894900513E-1,9.157501771E0
1.583134708E0,2.426603851E0,-1.043614792E1,1.639091492E0,1.083919787E1
1.593213708E0,2.303110657E0,-1.215532288E1,2.833308105E0,1.269188039E1
1.603292708E0,2.092199249E0,-1.326840820E1,2.773731995E0,1.371574071E1
1.613370708E0,2.115401001E0,-1.353545288E1,1.875300293E0,1.382751450E1
1.623449708E0,2.124082947E0,-1.294777496E1,3.740721130E-1,1.312617746E1
1.633528708E0,2.283651123E0,-1.183783310E1,-1.276096344E0,1.212343915E1
1.643607708E0,3.528163147E0,-1.121572678E1,-2.105820923E0,1.194466174E1
1.653685708E0,4.670288086E0,-1.146181503E1,-1.891167297E0,1.252043563E1
1.663764708E0,5.194348297E0,-1.205982147E1,-6.454577637E-1,1.314675488E1
1.673843708E0,5.609435120E0,-1.246443008E1,5.370831299E-1,1.367904375E1
1.683921708E0,5.524262238E0,-1.256187744E1,9.815089417E-1,1.375796489E1
1.694000708E0,5.444627838E0,-1.227537323E1,7.595205688E-1,1.345011642E1
1.704079708E0,5.268294525E0,-1.170221512E1,7.140151978E-2,1.283362241E1
1.714157708E0,4.668791199E0,-1.127126129E1,-8.393046570E-1,1.222879285E1
1.724236708E0,4.319268036E0,-1.099508560E1,-1.518292694E0,1.191021396E1
1.734315708E0,4.500092010E0,-1.061876816E1,-2.074236603E0,1.171799995E1
1.744394708E0,4.926854553E0,-1.098251175E1,-3.491639099E0,1.253319607E1
1.754472708E0,5.958658905E0,-1.300914734E1,-8.314609680E0,1.654920737E1
1.764551708E0,6.685697021E0,-1.450334015E1,-1.209080704E1,2.003080215E1
1.774630708E0,6.916367340E0,-1.320449112E1,-8.780291290E0,1.729994908E1
1.784708708E0,6.092480621E0,-1.014829651E1,-1.843865662E0,1.197940244E1
1.794787708E0,4.197421417E0,-8.430768127E0,1.858385468E0,9.599468439E0
1.804866708E0,2.566413116E0,-7.734865265E0,2.298470306E0,8.467442512E0
1.814944708E0,9.792636108E-1,-7.751031647E0,2.178719330E0,8.110750072E0
1.825023708E0,-4.939727783E-1,-8.490194550E0,1.829645233E0,8.699138709E0
1.835102708E0,-1.285676422E0,-9.804012451E0,1.468895416E0,9.996463262E0
1.845181708E0,-1.468596039E0,-1.143217667E1,8.958869934E-1,1.156088453E1
1.855259708E0,-1.594484253E0,-1.310434937E1,3.333567810E-1,1.320520651E1
1.865338708E0,-1.909878387E0,-1.452519470E1,-3.287164307E-1,1.465390634E1
1.875417708E0,-1.914818115E0,-1.540686127E1,-5.304968262E-1,1.553445620E1
1.885495708E0,-1.076261902E0,-1.569635925E1,1.216969299E-1,1.573368500E1
1.895574708E0,1.300794983E-1,-1.533411255E1,-5.373825073E-2,1.533475843E1
1.905653708E0,1.944755859E0,-1.322754318E1,-1.653012543E0,1.347154128E1
1.915732708E0,3.245700531E0,-1.027104126E1,-3.030298462E0,1.118979755E1
1.925810708E0,3.986210632E0,-8.625962219E0,-3.072510681E0,9.986862435E0
1.935889708E0,4.279001770E0,-7.942034454E0,-2.396217041E0,9.334217885E0
1.945968708E0,3.998485107E0,-7.475155334E0,-1.538650360E0,8.615873453E0
1.956046708E0,4.326453094E0,-7.219786377E0,-6.976991272E-1,8.445726480E0
1.966125708E0,5.114564209E0,-6.893614655E0,1.240919495E-1,8.584642617E0
1.976204708E0,5.314847717E0,-6.707701263E0,7.791297913E-1,8.593480420E0
1.986282708E0,4.793481903E0,-6.708449707E0,1.472188568E0,8.375446580E0
1.996361708E0,3.566633148E0,-6.934928741E0,1.856589203E0,8.016297907E0
2.006440708E0,2.112706604E0,-7.051536255E0,1.911524963E0,7.605367870E0
2.016519708E0,9.837542725E-1,-6.963818665E0,1.822160797E0,7.265178100E0
2.026597708E0,3.532653809E-1,-6.912625122E0,1.748663635E0,7.139118084E0
2.036676708E0,-1.787283325E-1,-7.138056335E0,1.785487061E0,7.360146473E0
2.046755708E0,-4.219725037E-1,-7.459737396E0,1.833836517E0,7.693419213E0
2.056833708E0,-1.948947144E-1,-7.528444519E0,1.820663910E0,7.747920876E0
2.066912708E0,1.913021851E-1,-7.320975952E0,1.814826050E0,7.544990325E0
2.076992917E0,3.508703613E-1,-6.991660767E0,1.731449432E0,7.211403984E0
2.087070917E0,8.104147339E-1,-7.070546722E0,1.678160248E0,7.312019202E0
2.097149917E0,2.131118317E0,-8.094567261E0,1.804198151E0,8.562640678E0
2.107228917E0,3.543581085E0,-9.735005951E0,1.781445465E0,1.051193872E1
2.117307917E0,4.582869873E0,-1.132365234E1,1.763482819E0,1.234251475E1
2.127385917E0,5.216202850E0,-1.384231476E1,9.840536499E-1,1.482520865E1
2.137464917E0,5.098547516E0,-1.529654068E1,-7.785310364E-1,1.614265945E1
2.147543917E0,4.332740021E0,-1.353081253E1,-3.082090759E0,1.453804689E1
2.157621917E0,4.160448303E0,-1.068987030E1,-4.607269135E0,1.236161745E1
2.167700917E0,5.335504761E0,-7.833809509E0,-4.078119507E0,1.031829643E1
2.177779917E0,7.011719055E0,-5.722749481E0,-1.272054749E0,9.139594576E0
2.187857917E0,7.129823456E0,-6.117628326E0,1.969604187E0,9.598911371E0
2.197936917E0,5.469326477E0,-7.191345520E0,4.030967560E0,9.893315014E0
2.208015917E0,3.352428589E0,-8.515641632E0,5.133424988E0,1.049318741E1
2.218094917E0,2.215093689E0,-9.354048157E0,5.001848602E0,1.083620535E1
2.228172917E0,2.022294617E0,-9.683662720E0,3.910917206E0,1.063758772E1
2.238251917E0,1.993853760E0,-9.797276459E0,2.234253845E0,1.024470444E1
2.248330917E0,2.034419403E0,-1.000684067E1,-7.020401001E-2,1.021178981E1
2.258408917E0,2.743345184E0,-1.017703674E1,-2.564766541E0,1.084785910E1
2.268487917E0,3.920946350E0,-1.043644730E1,-5.604196014E0,1.247799124E1
2.278566917E0,5.149890747E0,-1.109926895E1,-9.527687073E0,1.550780342E1
2.288644917E0,6.524182892E0,-1.205024139E1,-1.331436264E1,1.910616478E1
2.298723917E0,7.783963165E0,-1.282293457E1,-1.506557098E1,2.126003675E1
2.308802917E0,7.937693481E0,-1.312800018E1,-1.466994370E1,2.122636603E1
2.318881917E0,6.341712341E0,-1.296064819E1,-1.243928238E1,1.905076017E1
2.328959917E0,3.920347595E0,-1.260468842E1,-9.534722443E0,1.628367979E1
2.339038917E0,2.063908081E0,-1.202793777E1,-8.136779480E0,1.466758958E1
2.349117917E0,9.755213928E-1,-1.120809265E1,-7.460485840E0,1.349932709E1
2.359195917E0,8.532257080E-3,-1.039303757E1,-5.356910248E0,1.169238171E1
2.369274917E0,-6.713539124E-1,-9.535171509E0,-2.650388489E0,9.919413839E0
2.379353917E0,-1.675765228E0,-8.371790771E0,-5.641767883E-1,8.556480893E0
2.389432917E0,-1.808239746E0,-7.281158752E0,1.750310211E0,7.703803580E0
2.399510917E0,-7.873626709E-1,-6.307433624E0,3.408262482E0,7.212483071E0
2.409589917E0,3.966751099E-1,-5.306465149E0,4.198169861E0,6.777946127E0
2.419668917E0,1.450783081E0,-4.466861115E0,4.525239716E0,6.521917988E0
2.429746917E0,2.392624512E0,-3.451223145E0,4.745581512E0,6.336887023E0
2.439825917E0,3.321443024E0,-2.440674591E0,4.643194427E0,6.208714095E0
2.449904917E0,3.968846741E0,-1.613045654E0,4.203858032E0,6.002173197E0
2.459982917E0,4.733307037E0,-1.171463928E0,3.292104034E0,5.883406515E0
2.470061917E0,5.447471924E0,-1.386865997E0,2.334844666E0,6.086858571E0
2.480140917E0,6.088588715E0,-1.979034576E0,1.619631958E0,6.603839646E0
2.490218917E0,7.013365631E0,-2.622995453E0,3.576063538E-1,7.496351441E0
2.500297917E0,8.233927460E0,-3.236270142E0,-2.265389099E0,9.132523945E0
2.510376917E0,8.499924316E0,-4.581672363E0,-2.525847473E0,9.980998972E0
2.520455917E0,7.514074402E0,-6.510261841E0,-2.016756134E0,1.014456153E1
2.530533917E0,6.463409271E0,-8.344248047E0,-1.782642975E0,1.070420249E1
2.540612917E0,5.926625519E0,-9.789043579E0,-1.224753113E0,1.150870472E1
2.550691917E0,5.246589661E0,-1.099059494E1,3.263214111E-2,1.217870868E1
2.560769917E0,4.135450287E0,-1.216430420E1,2.115401001E0,1.302102788E1
2.570848917E0,3.237317963E0,-1.352766907E1,4.432881775E0,1.459892115E1
2.580927917E0,2.511926422E0,-1.452833817E1,5.880820770E0,1.587345070E1
2.591006917E0,2.182311859E0,-1.475481720E1,6.028264160E0,1.608748223E1
2.601084917E0,2.557431793E0,-1.437700287E1,5.431006165E0,1.557993892E1
2.611163917E0,2.321971436E0,-1.342213852E1,4.673431549E0,1.440091373E1
2.621242917E0,2.449955292E0,-1.209395050E1,3.598367157E0,1.285356627E1
2.631320917E0,2.761607208E0,-1.080123871E1,2.642005920E0,1.145746164E1
2.641399917E0,2.993624725E0,-1.000504440E1,1.800156555E0,1.059732354E1
2.651478917E0,3.542682953E0,-9.691745911E0,7.755372620E-1,1.034804326E1
2.661556917E0,4.018992462E0,-9.648485870E0,-7.634124756E-3,1.045206383E1
2.671635917E0,4.403991852E0,-9.721983032E0,-2.716850281E-1,1.067641846E1
2.681714917E0,4.871918793E0,-9.857601013E0,-2.409988403E-1,1.099845311E1
2.691793917E0,5.465883636E0,-9.743987274E0,1.212478638E-2,1.117234617E1
2.701871917E0,6.107599182E0,-9.440268860E0,2.731819153E-1,1.124704727E1
2.711950917E0,6.956334229E0,-9.670340424E0,-8.352630615E-2,1.191272624E1
2.722029917E0,7.333699493E0,-1.038794815E1,-1.172511749E0,1.276978460E1
2.732107917E0,7.576195221E0,-1.104568039E1,-3.137026520E0,1.375669745E1
2.742186917E0,8.695417786E0,-1.142843445E1,-5.881868591E0,1.551824032E1
2.752265917E0,9.626481628E0,-1.042357407E1,-8.120912476E0,1.634837192E1
2.762343917E0,9.041797485E0,-8.794960785E0,-7.843389587E0,1.485342375E1
